T(K),Fc,X,m(mol/kg),cp(J/gK),cp_err(%),cpm(J/molK)
175.1078705,0.9136777433456336,0.3289743709898976,28.786098586488063,2.6857904532332175,0.5471812342277422,47.58322014346137
175.1364045,0.9136644288359936,0.3289237706153442,28.77950073373293,2.84256635943482,0.5477028096100508,50.36091159777058
175.1648315,0.913651182334456,0.3288733615628963,28.772928817001514,2.9492505566951235,0.5479873530260055,52.25115603244032
175.19314050000003,0.9136379601200488,0.3288231633031805,28.766385362679348,3.133153463477698,0.5429628940610112,55.509479887656276
175.2215945,0.913624816244156,0.3287727094630627,28.759809579087765,2.904785827965009,0.5430302346479625,51.463683976122624
175.250201,0.9136114516346324,0.3287219867508681,28.753199749079904,3.0811353922500206,0.5431582005951906,54.5882042161649
175.27853249999998,0.9135981583312924,0.3286717531480303,28.746654640812014,3.4081109313266045,0.5441886366850052,60.38137596080591
175.306616,0.9135850426841976,0.3286219607239322,28.740167981800397,3.563053790142551,0.5379328713283243,63.1266741696495
175.334719,0.913571973332862,0.3285721351634015,28.73367796902166,3.5699688555344133,0.5388178221195074,63.24937023395449
175.36334449999998,0.913558832299516,0.3285213846914397,28.727068472332267,3.1001179218601784,0.5327792492324779,54.92515146765494
175.391638,0.913545268182595,0.32847122425864117,28.720536801162048,4.2922210013839335,0.5387620635223762,76.04600101697159
175.419951,0.91353242968113,0.3284210306641747,28.71400178849785,3.373631297958861,0.5286544998992948,59.77136584983371
175.44848100000002,0.9135188398310764,0.3283704537788175,28.707417860828766,4.329356023714635,0.5293764259785078,76.70437423211307
175.4767095,0.9135057915248324,0.3283204127566114,28.700904665835864,4.130158446249224,0.5274086817470952,73.17534793852231
175.504965,0.9134924757172872,0.32827032522492394,28.69438638906745,4.710688413533635,0.5238596020397801,83.4610255073536
175.53342650000002,0.9134793949283796,0.3282198738769257,28.687821748690535,4.308724185946008,0.5176320854116765,76.33949732095081
175.561995,0.9134658791478224,0.32816923420728367,28.68123359570851,5.068587367514417,0.5152477456824219,89.80257846667331
175.5901665,0.9134526909648556,0.3281192995544292,28.67473813691892,5.423597921785832,0.5114348758624762,96.09274641135872
175.6185555,0.9134395388510392,0.32806898067351853,28.668193674651505,5.363780669376142,0.5061056141264366,95.03320836811774
175.647303,0.91342613983861,0.32801802766789234,28.66156773698782,5.5876993541606375,0.4999450880117807,99.00079629799274
175.67552799999999,0.9134126448450176,0.32796800202295573,28.65506337095301,6.960087848591768,0.5006944021784504,123.31662525034835
175.70356600000002,0.913399727276552,0.32791830903903274,28.648603216367185,6.770368117152786,0.49475376333700677,119.95557509770012
175.7322485,0.9133863998054562,0.3278674750255437,28.641995714800643,6.9812591422250465,0.48254455021340315,123.69244860909737
175.7606455,0.913372871407338,0.32781714822892827,28.635455126726438,8.383602419825866,0.48171991148815,148.53929643519
175.788607,0.9133598037903822,0.32776759442538844,28.629015955515595,8.981259516543837,0.47756278431610116,159.12894187859396
175.8169765,0.9133466758403246,0.32771731873318055,28.62248395000968,9.152777792100647,0.46462900630499665,162.1683535094724
175.84548,0.9133332184781134,0.3276668067453408,28.615922227891467,10.390119596076318,0.4617282384382317,184.09203569294553
175.87345349999998,0.9133199574361844,0.3276172351176526,28.60948362108154,11.972529971758421,0.45948222816147527,212.1297734312154
175.902022,0.9133069894824974,0.32756661023365835,28.602909191936828,11.330289896468654,0.43865702869887613,200.75112373115357
175.9306855,0.9132931627904748,0.3275158181443956,28.596314043346297,14.155102053671044,0.4446892411162126,250.80214129219257
175.9585785,0.9132800982473273,0.3274663924709835,28.589897274699442,15.487127338554002,0.4363514943568332,274.403939699072
175.9867575,0.9132669868653808,0.32741646107872696,28.583415807891836,16.562898630928718,0.4253442326470708,293.4655100982078
176.0147575,0.9132536464421974,0.32736684790831305,28.57697660174514,19.41049690227527,0.4243997103251219,343.92094039068144
176.04296349999998,0.9132406957376052,0.327316870764248,28.57049111641249,19.947220096305248,0.4077250985260109,353.4317797479714
176.071322,0.9132271542390336,0.32726662444487853,28.56397167187075,23.508556470635718,0.41020199785219563,416.53398259428235
176.099444,0.9132140528391258,0.3272167981698499,28.557507689576397,25.464318484460225,0.3985885301445761,451.18825068398814
176.1279855,0.9132007258925942,0.32716622963856107,28.550948392956084,27.79931884033406,0.3898246406855595,492.56227386564336
176.1562905,0.913187222569054,0.3271160811154762,28.54444454967431,32.333205575260635,0.3928347876055831,572.8976098007354
176.18422149999998,0.9131741103565052,0.3270665961644866,28.538027716340707,35.69852885853582,0.3881236807299885,632.5280730957184
176.2124465,0.9131609511507656,0.32701659127968574,28.531544420525048,38.550432624810746,0.37870331160114096,683.0617944625494
176.240912,0.9131475548028776,0.3269661612552075,28.525006979677777,42.56288146008665,0.37533443232323505,754.1591821008947
176.268977,0.9131341616311056,0.32691644167512407,28.518562595526507,48.50777729033246,0.38094276608471844,859.497507740781
176.29670199999998,0.9131211346473532,0.3268673253072486,28.512197331240216,52.7076728042813,0.37712512326499353,933.9170800989115
176.3247395,0.9131080540613318,0.3268176561950761,28.50576137831117,55.934354651994276,0.3694604272531031,991.0928716771716
176.353163,0.913094725260882,0.3267673041482643,28.499237902384547,59.80933993051143,0.3643990234098067,1059.756261663927
176.381541,0.913081273377384,0.32671703356592546,28.492725954137075,65.32571492802073,0.36701210405530255,1157.503764736945
176.409617,0.913067979711632,0.32666729879680007,28.486284370900545,70.71785625037363,0.36881992894370913,1253.0504978372346
176.4373535,0.9130548047916044,0.3266181662260221,28.479921717933617,76.70579675932747,0.3728524502447693,1359.1547346148031
176.465468,0.9130418237083876,0.32656836485681673,28.473473403235865,77.3635373323339,0.35773849434678906,1370.81321711828
176.4933535,0.9130282846092092,0.3265189699058015,28.467078653852788,87.54981751629094,0.37705674892567315,1551.3094798854042
176.521445,0.913015512150484,0.3264692108197474,28.460637711309907,84.46158035607316,0.35170784290891666,1496.5927968691428
176.549662,0.9130017707835624,0.3264192301879556,28.454169049305506,95.23773720988224,0.3727374558456167,1687.5426874884151
176.5775665,0.9129888724016814,0.32636980381475866,28.447773065307484,94.52939550436932,0.35791863629179577,1674.996167318002
176.605849,0.912975418229794,0.32631970862589527,28.441291491355507,99.75213149141211,0.3622399515715234,1767.5445792197436
176.633784,0.9129621552202776,0.3262702296441477,28.434890591622356,104.21930197982351,0.36552844460766454,1846.7052794991796
176.66184850000002,0.9129490216266936,0.32622052197478957,28.428461054107046,104.74877315537745,0.3584994456395615,1856.092520416314
176.6897795,0.9129356284948208,0.32617105142637415,28.42206312929632,110.65030275648307,0.3683925354884971,1960.670077833631
176.7175165,0.912922613506908,0.3261219251279637,28.415710655217346,110.49640946418307,0.3630245595174167,1957.94870942214
176.74563849999998,0.9129093961287638,0.32607211757693877,28.409271034509384,109.96147760232857,0.3586886676181271,1948.4755438992267
176.773703,0.912896009302106,0.32602241249151753,28.402845610436824,112.27942430249404,0.36431040665019704,1989.55437999231
176.801882,0.9128828386075432,0.32597250522859705,28.396395004140192,108.50376910917468,0.35582476320912737,1922.6565479801827
176.8300915,0.912869335527858,0.32592254454807545,28.389938450232005,109.6266223948488,0.36374987650014334,1942.5587916762652
176.8580915,0.9128561281938428,0.3258729554829622,28.38353086754925,105.91488034330301,0.3613846443657865,1876.7929342415855
176.88604199999997,0.9128428156327872,0.3258234546439337,28.377135624983985,103.44792940012559,0.3655784078866174,1833.084232535899
176.91392,0.912829647467084,0.32577408274566916,28.370757976268735,98.12797987388473,0.3639416392623431,1738.8203497847207
176.9420535,0.9128163958342836,0.3257242588907093,28.364322892571888,91.82046198505441,0.3604280408343616,1627.0562864806082
176.9705835,0.9128029776865524,0.3256737333738232,28.357798155668593,85.65171416712158,0.3556247386133071,1517.750651598744
176.99898000000002,0.9127893421260798,0.3256234447958395,28.351304987277,84.98581936844721,0.36475972736472334,1505.9553450524513
177.0268845,0.9127760425924608,0.32557402800749075,28.344925326046187,84.60821453657569,0.36820821872210485,1499.2684302055384
177.05490350000002,0.912762865834732,0.3255244089174686,28.33852048844361,83.25916053558078,0.3621057330109102,1475.3672413157801
177.0829875,0.9127494497714104,0.3254746751750522,28.332101797064695,86.19321257495025,0.3662862109674484,1527.363549276476
177.1108155,0.9127362034912252,0.32542539521706165,28.32574260513763,89.20330651611022,0.3678321680797254,1580.7075979325073
177.138918,0.912723022648946,0.3253756295786683,28.319321682797277,89.60511579339133,0.35882114801964526,1587.8323274331594
177.167315,0.9127095077320786,0.3253253428401098,28.3128344886172,93.31366154046681,0.35971517933595193,1653.5537810086964
177.19529599999998,0.9126960391173066,0.3252757931701451,28.306443325105533,99.8011273418122,0.3681659553407655,1768.5192098002374
177.22324600000002,0.9126829115897402,0.3252262987736228,28.300060228094008,100.75565015850275,0.3596889465740031,1785.4388631592806
177.2514635,0.9126694644548388,0.32517633105057125,28.29361703782824,104.99950081743793,0.36088334399904237,1860.64731083594
177.279673,0.9126560746378704,0.32512637784782294,28.287176673605966,108.17803626118956,0.3591343530739507,1916.9781805023
177.3078635,0.9126426270389516,0.32507645862824236,28.28074164313438,112.42125249831251,0.3606747927614897,1992.1761925073529
177.3357985,0.9126292472587624,0.3250269921616803,28.274365915470888,117.54110499682358,0.3649477790341834,2082.909180580667
177.3636455,0.9126160348625648,0.3249776818234038,28.268011241188677,119.82835216373418,0.36242183678556766,2123.4468102643286
177.39144349999998,0.9126027309181391,0.324928458536856,28.261668711245296,124.02207583576448,0.3657084286714347,2197.76892574005
177.41951999999998,0.9125895573396652,0.3248787423702636,28.25526361142108,122.18736659326751,0.35521935174912406,2165.2626391423514
177.4476685,0.9125759800473248,0.3248288989713471,28.248843066733578,127.33795785419662,0.36370734872088906,2256.541922442697
177.4756645,0.912562729898854,0.32477932585288305,28.242458278251576,126.2362472832837,0.3587446532085326,2237.0250251370603
177.5038935,0.9125492898356868,0.3247293403875978,28.23602133057711,125.57164919464705,0.35791466909841246,2225.2541355526105
177.5321985,0.9125358094509664,0.3246792205659498,28.229568037712724,123.35196718240563,0.35711097398919556,2185.925486502263
177.56012950000002,0.9125222887056414,0.3246297631869932,28.223200978083554,123.52914970514917,0.36765355050272897,2189.071588179826
177.5882135,0.912509157091452,0.32458003507526045,28.216800004894598,112.06661102145476,0.35413000249195375,1985.948564969122
177.61645,0.9124954821192603,0.32453003710395656,28.210365245706175,108.44700977885458,0.36471498878142705,1921.810630024421
177.6444,0.9124821968936918,0.3244805465880058,28.203996734301057,100.05305810313583,0.36233452263334026,1773.0648334357952
177.67227,0.9124687872946246,0.3244311978641287,28.197647397982667,94.85842832044771,0.3681465888653488,1681.0143055249673
177.70039200000002,0.9124555704891,0.3243814030544531,28.191241607249406,85.13536785899787,0.3577997539458601,1508.7134028136086
177.72903300000002,0.91244191189345,0.3243306893794672,28.184718580713046,79.02087240291279,0.3575798282818502,1400.360401403825
177.7574525,0.912428190731802,0.32428036800432286,28.17824698138195,75.55728698758583,0.3651929996367593,1338.9847076624585
177.78534150000002,0.9124147355205898,0.3242309860452435,28.171897133004737,72.14632076782621,0.3723178945334709,1278.5410796499827
177.813578,0.9124015134906353,0.3241809888462008,28.165469118513368,64.06622349558431,0.35968452046633526,1135.3529025099233
177.8420205,0.9123877175090884,0.3241306269419646,28.158995176241294,62.03112365264546,0.3700286505499327,1099.2909672004437
177.8705695,0.9123742901153732,0.3240800764981443,28.1524979676612,55.60060163061989,0.360246299956627,985.3346786578512
177.8987985,0.912360383577306,0.3240300926835925,28.14607454296499,56.1169776799059,0.3805890092346433,994.4885829304255
177.92661550000003,0.9123472543826796,0.3239808383830133,28.139745797360046,50.73623313070425,0.37292012438005273,899.1351631477515
177.954993,0.9123337340932912,0.3239305916197086,28.13329047920651,46.940340739898154,0.3710918872864753,831.8676929733693
177.9836755,0.9123200596036432,0.3238798047799969,28.126766751180728,43.4777049003683,0.36984392724510806,770.5057826474114
178.0119115,0.9123062384382836,0.3238298084967033,28.12034552981884,43.271862982783574,0.38494383450975006,766.8600916761393
178.039988,0.91229298363696,0.3237800945774576,28.11396151507051,38.99132367945536,0.3773903233359853,691.0027370564213
178.068404,0.912279306945157,0.32372977944748516,28.107501251522123,37.01850385656406,0.3818428377285788,656.0424033052789
178.096644,0.9122657181076608,0.3236797758672756,28.101081942048896,35.124754448842715,0.38648430465866884,622.4831465029602
178.12453299999999,0.912252201842705,0.32363039369087265,28.09474333806179,34.035665914640866,0.3946422116867682,603.1839671884255
178.15265499999998,0.912238941653153,0.32358059883366735,28.08835270027388,30.42573688080896,0.3860838547793846,539.2099397181356
178.1812995,0.9122251932296817,0.3235298786659269,28.08184427598157,28.6184121496743,0.3891662956160823,507.18171517649796
178.209719,0.9122114226804836,0.32347955675152795,28.075387920091767,27.714969662055818,0.39711931518198273,491.1721362844811
178.2379325,0.912197881846462,0.3234295994357371,28.068979292604904,26.04749027458859,0.39917755797406473,461.62194834353767
178.2665235,0.912184300728456,0.32337897350505085,28.062485859246774,23.643219347454952,0.39591548289341033,419.0139135367361
178.2949395,0.9121703883067336,0.32332865725103255,28.0560331086749,23.684001552693342,0.4086898994695981,419.73788859213477
178.32311099999998,0.9121569669642388,0.32327877372667974,28.0496368002447,21.65607309197766,0.40753474178875065,383.79918687913096
178.35138899999998,0.912143281100936,0.3232287013997008,28.043217230901718,20.881675746553057,0.41391981465625455,370.07601864159057
178.379923,0.9121297488124814,0.32317817552840933,28.036740477291257,18.743391418743766,0.410102409804183,332.18118904245904
178.4083885,0.9121158077746048,0.32312777069543575,28.0302802026617,18.892122431400768,0.421821390715721,334.8180588115998
178.436541,0.912102332878278,0.323077919835409,28.023891875789587,17.509059186144277,0.4229579121024253,310.3074352243319
178.4649225,0.9120886846400924,0.3230276631914162,28.01745250056298,16.49437845795165,0.4244379252689129,292.325421433109
178.493281,0.912074980507152,0.322977446975202,28.011019260201124,15.835178333587836,0.4296365484305396,280.6434079107566
178.5213875,0.9120613457897814,0.3229276766812605,28.004644088895944,15.44193331453601,0.43708543449771314,273.67479760918326
178.549265,0.9120478760524984,0.3228783115751865,27.998321744644272,14.819417642359083,0.44070065874554654,262.6428041327654
178.577513,0.9120344537241676,0.32282829005321206,27.991916271397297,13.254936606014391,0.4389477749153177,234.9163673480529
178.6060395,0.9120206179365166,0.32277777500196936,27.985448559885345,12.917064203883951,0.44425587216681783,228.9289437774853
178.6344475,0.9120069181843932,0.32272746941538794,27.97900862606035,12.273631319685594,0.4456935939868431,217.5260228837963
178.6631415,0.9119931879819986,0.32267665697614445,27.972504777953922,11.240709669712327,0.44566275931477084,199.2200978084424
178.691454,0.9119792031414432,0.32262651970576245,27.966088305943185,11.9413025596864,0.4591773618816498,211.63737970061575
178.71956849999998,0.9119658327837146,0.32257673265034276,27.959717593633798,10.609734927596145,0.45469194497721177,188.03835958460385
178.7482475,0.9119520304421324,0.32252594550005187,27.953219874734287,9.947410314365424,0.45787477165095974,176.30037011166962
178.776789,0.9119381056607088,0.3224754013895637,27.946754217554098,9.998756553739486,0.46429892011566287,177.21090838416376
178.8050445,0.9119244273946492,0.3224253632924643,27.940354240335164,9.666985377359456,0.4673061784490575,171.33132433642194
178.8336165,0.911910770395572,0.3223747642163735,27.93388347387594,8.729199355870042,0.466648420450697,154.71106974337
178.8619405,0.9118967769858864,0.3223246038358057,27.927469762915706,9.416608113422113,0.47578814168073397,166.89477101269483
178.890215,0.9118833512932246,0.32227453061013955,27.92106814285773,8.169996914068392,0.47207828244971883,144.8009393638578
178.91850849999997,0.9118693968359476,0.322224423214078,27.914663101135805,8.749534364657686,0.4826590949417815,155.07281927637254
178.9468215,0.9118559441060669,0.32217428074622434,27.908254524280796,7.565409905015956,0.47778768530645715,134.08631654378874
178.9752605,0.9118419617653928,0.32212391457542183,27.901818310979028,7.967432402618032,0.4834119423222113,141.21201345211713
179.003489,0.9118283781899832,0.3220739206391415,27.895430610712577,7.3746771501804576,0.48574998357750687,130.70660130577735
179.0319005,0.9118145909539364,0.3220236020172066,27.889002376776606,7.1726404435581745,0.4880807362713596,127.12613113050504
179.060198,0.9118008210730062,0.3219734846990581,27.882600807922973,7.101492888864173,0.49010582678907416,125.86549287751252
179.088366,0.9117871355305746,0.3219235961295594,27.876229397341014,6.962504529670961,0.49401697683800727,123.40244487696545
179.1165565,0.9117734824649716,0.3218736670891466,27.869853756712075,6.678977531738879,0.4950552389573897,118.3775932380349
179.144957,0.9117597662443436,0.32182336546845475,27.863431489119016,6.272192527266985,0.49417774149676336,111.16809501750005
179.173293,0.9117459003419937,0.32177317742912903,27.857024672453715,6.422210811515228,0.49990450869389785,113.82734256428024
179.2015215,0.9117322378649264,0.3217231791230095,27.85064301917231,6.075603372760168,0.501819482235305,107.68437849456848
179.2300245,0.9117184674416136,0.3216726939310271,27.844200175597408,5.645160362737502,0.4996093440116094,100.05547056694726
179.2586345,0.911704529158935,0.32162201850414734,27.83773401891927,5.561068723454935,0.5030929873768035,98.56530864808565
179.286768,0.9116906456140446,0.3215721863650627,27.831376407306823,6.024369368434717,0.5106626123739584,106.77723322728173
179.3147795,0.9116771618182518,0.3215225696053353,27.82504720176009,5.445343769175061,0.5093730397499279,96.5147336150351
179.3431495,0.9116633880179784,0.3214723170917872,27.81863784178349,5.235515888233924,0.5103059491207792,92.79595680270994
179.37155,0.9116495464227068,0.32142200978921365,27.81222244469756,5.174417200278114,0.5099444242305305,91.71329011682265
179.400149,0.9116357338808184,0.3213713500860865,27.8057630691979,4.744413787647351,0.511932003964867,84.09199569445502
179.4287365,0.911621689777221,0.32132070994944223,27.799307152282136,5.003538206960183,0.5158459766949638,88.68508535190476
179.456946,0.911607879292798,0.32127073860207095,27.792937441101916,5.112483880412644,0.5148648759082994,90.61635120986476
179.4852355,0.91159419443093,0.32122062472397056,27.786550503804218,4.732457013115551,0.5149078199082716,83.88079761913863
179.51354049999998,0.911580296876008,0.321170482555926,27.780160904812877,4.959269362654785,0.5182613025463172,87.90120460943729
179.5417845,0.9115665878945376,0.32112044760474695,27.773785909278015,4.723147746987506,0.5172777078055518,83.71627828305425
