T(K),Fc,X,m(mol/kg),cp(J/gK),cp_err(%),cpm(J/molK)
175.110701,0.3920888084133796,0.3289693514905851,28.78544404257904,2.1855237822052875,0.3774051815453415,38.720179840655966
175.1403795,0.391992442797836,0.328916721730122,28.778581698805272,2.155997985323854,0.3720394357055243,38.19719730545631
175.1702715,0.3918942497399157,0.32886371509331735,28.771671302351294,2.2052880121508207,0.3726307870612107,39.07057400248378
175.19991950000002,0.391796428284846,0.32881114283000124,28.764818612630183,2.2882671810383535,0.37423158806108303,40.540819530069214
175.229449,0.3916997791994087,0.32875878235167844,28.75799459560175,2.317170860136065,0.37294076551219874,41.05302480548878
175.25879500000002,0.3916026791066252,0.32870674886953755,28.751214249797787,2.4236730122085555,0.3769512255183035,42.94003890529228
175.288275,0.3915071791477974,0.32865447940052306,28.744404211366287,2.3771116872266513,0.3688517416181549,42.11524224791479
175.3177055,0.3914091435626067,0.32860229928726503,28.73760687246769,2.5375339662453262,0.37558043338835156,44.95757598899684
175.347086,0.3913139138117149,0.32855020938959384,28.73082233940882,2.4983387418898726,0.36769562769212777,44.263285834989766
175.3767265,0.3912161503723982,0.32849766009373,28.723979037836084,2.5925718459920897,0.36890705099104704,45.93296118377899
175.4060845,0.3911191570109582,0.3284456131711668,28.71720221416212,2.7037362418560438,0.37136869765852726,47.902620258459024
175.436087,0.3910231940629458,0.3283924252120599,28.710277905785496,2.5687916890360287,0.35481266179862453,45.51192100743122
175.466048,0.3909219063510244,0.32833931237397485,28.703364471419196,2.871279391834158,0.37007767340541303,50.87132666871027
175.4954785,0.3908261598226851,0.3282871414600142,28.696574707027644,2.8692764991513444,0.362718610061815,50.83599376847137
175.5251755,0.3907283032174998,0.32823449960372136,28.6897247209612,2.975299164882704,0.3624707702686088,52.71459514208809
175.55473899999998,0.3906307470227795,0.3281820958490622,28.682906783930346,3.1001745886470475,0.36293877141834074,54.92723022481803
175.584269,0.3905337120459144,0.328129752906694,28.676097820525015,3.195262929613778,0.3607162091885519,56.612125333950175
175.613852,0.3904363194917249,0.32807731743507257,28.669277884226897,3.314487894564838,0.3595926333554912,58.724673265003034
175.643393,0.3903388786564349,0.32802495780253155,28.662468873855094,3.4616980717133137,0.3592793637655295,61.333065175794246
175.673262,0.3902417057882826,0.3279720182077787,28.655585522096253,3.489293394093391,0.35058223711066255,61.82217747330384
175.7028105,0.3901420457279827,0.327919648029139,28.648777274353787,3.8843010728515406,0.36415631629027245,68.82100426495946
175.7323745,0.3900469284867024,0.32786725171841613,28.641966691121215,3.8229108470919537,0.3476814459186098,67.73351338882965
175.762175,0.389947107605368,0.32781443759533313,28.635102874247114,4.185863757635697,0.3561849803561148,74.16446100298205
175.791655,0.389850374004568,0.327762192782358,28.62831410705249,4.346874783104116,0.3521444511099725,77.01746051536905
175.8211805,0.3897526089548757,0.3277098686131154,28.62151608572733,4.6277165569201335,0.35298944795660114,81.99363231913108
175.850752,0.3896555180185814,0.32765746418893044,28.61470869810961,4.831016899666807,0.3487895803106996,85.59595551082603
175.88016349999998,0.3895573914684416,0.3276053445420884,28.6079393558174,5.259734765129373,0.35448461304988077,93.19225859260285
175.9096055,0.3894612998932724,0.3275531720641175,28.60116420272017,5.4337576199464825,0.3458701168156232,96.27589440565565
175.93918100000002,0.3893629139334368,0.32750076422639174,28.594359544003446,5.894324099203196,0.3495887584240177,104.43657582590187
175.9686115,0.3892658831932898,0.3274486145123738,28.587589452861735,6.266545467446812,0.3471854171518902,111.0319874020717
175.998202,0.389168397358229,0.3273961824562628,28.580783766353456,6.662714280963746,0.3441607224592744,118.05174778159358
176.02770850000002,0.3890702509895922,0.3273439003931509,28.57399860538062,7.255163777687806,0.34729651933185757,128.54931348418725
176.0569215,0.388973262670617,0.32729213949248226,28.567282119770034,7.8676912506172485,0.349243119383952,139.40268737651255
176.0863445,0.3888769999834067,0.32724000760757543,28.56051853995368,8.243568430259595,0.34128667162059334,146.06305852832958
176.11600349999998,0.3887785643580918,0.3271874586782627,28.55370191362631,8.907092795104518,0.3426201535236338,157.8201442542038
176.145445,0.3886806817427433,0.3271352961850533,28.546936468642034,9.624762776747536,0.3450470596026779,170.53667836263307
176.17458549999998,0.3885836274738685,0.3270836680215634,28.540241358724593,10.387476760128779,0.3486328740624926,184.05139934185698
176.203913,0.3884876805240667,0.32703170957527783,28.53350445506539,10.710830845126676,0.34011858073770307,189.78134512582434
176.23353400000002,0.3883893295140773,0.3269792321712011,28.526701319462433,11.35953689826988,0.3412733622575335,201.27614261243838
176.26269000000002,0.3882913796726794,0.3269275795627581,28.520006145774783,12.328746279972984,0.35027473179977153,218.44991642620963
176.291987,0.388196052743241,0.32687567812944784,28.513279754541312,12.450160187973214,0.3375839943517693,220.60187881789588
176.321646,0.388097109376999,0.32682313636315685,28.50647143305252,13.263164863465882,0.3414364126148995,235.00805684917194
176.35074450000002,0.3879993235149305,0.32677158847156335,28.499792929820337,14.344134649684563,0.3501330731455302,254.162356165607
176.3800645,0.3879040401787535,0.32671964911035123,28.493064742422295,14.414327961922412,0.3360859321718314,255.4068697741215
176.409697,0.3878047254938726,0.3266671570832811,28.4862660177077,15.463340484840023,0.34248112297386957,273.99510786216723
176.4388905,0.3877073095464131,0.32661544359961064,28.479569165792714,16.40432824849799,0.3457886257296725,290.6693476851849
176.4679245,0.387610850725569,0.32656401350743847,28.472910032904633,17.208756715531447,0.34591130419756055,304.9239717912502
176.4971835,0.3875144361830184,0.3265121856986135,28.466200432799646,17.710815366336988,0.3403274929867652,313.8209456342614
176.526568,0.3874164241290161,0.3264601364195503,28.459463200491317,18.67319827738292,0.34278828857290994,330.8745650090315
176.555926,0.3873191169831538,0.3264081348969798,28.452733189515268,19.388108056527727,0.34075420548245255,343.5432410240313
176.5852495,0.3872212217377266,0.3263561952809756,28.44601222763948,20.403291965088776,0.34342225234158985,361.53264790235625
176.61411900000002,0.3871240850837008,0.3263050605791837,28.439396433645566,21.789736139253556,0.3513359080103042,386.10064719826687
176.64335499999999,0.3870291518336822,0.3262532774715688,28.432697772486915,21.554095698596402,0.33492542459041563,381.92638480586993
176.673083,0.3869295172631442,0.3262006236866826,28.425887536274004,22.742954000565806,0.33958136562379737,402.99350510796006
176.7024485,0.3868312501589673,0.3261486126891398,28.419161482997982,23.87450118967064,0.3430584328551124,423.0452109826017
176.731898,0.386733968742826,0.32609645362778295,28.412417324788564,24.347336423032562,0.33758500737951486,431.424932069519
176.7608745,0.3866350819135273,0.3260451329938734,28.405782593972212,26.556420452742195,0.35438863241261015,470.5703982131926
176.789698,0.3865408934835862,0.3259940839926829,28.399183982195126,26.397912419972013,0.3409811941570701,467.76306877712796
176.8189375,0.3864429669974778,0.3259422988660648,28.392491239786814,27.570706829579994,0.34422197893262646,488.54609186912046
176.8476855,0.3863459474973016,0.3258913848384655,28.385912081239727,29.215617472926887,0.3526659873568393,517.6950207048814
176.8767765,0.3862512400891912,0.3258398639503238,28.379255515184624,28.690082660047153,0.3362691263384035,508.38415709127736
176.9065005,0.3861518732815904,0.3257872226175865,28.372455236992483,29.71355800069371,0.3376134748913508,526.5215918535249
176.935553,0.3860528826503721,0.32573577109688645,28.365809686418135,31.981888446305295,0.3520270937869275,566.7178859862149
176.9642735,0.3859579377700969,0.3256849080923518,28.359241146219745,32.2619176581361,0.34526195857049913,571.6816700222415
176.993437,0.3858611043018702,0.32563326109227264,28.352572373291366,32.785846310793794,0.34138160302960224,580.967423894914
177.0223375,0.3857631421891135,0.32558208037316416,28.345964815175957,34.718395521551244,0.3515813662171816,615.2141428441188
177.0512565,0.3856680070157431,0.3255308673953015,28.33935409612568,34.48762383704593,0.3409149552343796,611.126645566321
177.080576,0.3855698615300181,0.32547894566453534,28.332652913976023,35.445885864306014,0.3419554864124949,628.109094579492
177.10957150000002,0.3854719898984783,0.32542759817867123,28.32602686020991,37.00708649339179,0.3485579808847246,655.7758636002142
177.138407,0.3853759510506165,0.3253765344852261,28.31943842828869,37.5209427652871,0.3456941509614932,664.883497357246
177.167414,0.3852790900427612,0.32532516752698754,28.31281187420164,38.18926099962054,0.34442599302096893,676.7283216169493
177.1967755,0.3851818445426835,0.32527317323381605,28.306105418782295,38.166302482214526,0.3374268146120262,676.3235155917768
177.225752,0.3850825502553289,0.3252218611186451,28.299487966984763,40.88256420680948,0.3537588385118811,724.4590007951626
177.254511,0.3849878228124059,0.32517093454022805,28.2929212308526,40.29536752790076,0.34241960542572003,714.0556857564935
177.28338050000002,0.384889924591733,0.32511981265595297,28.2863303077366,42.111237108554235,0.35100104914217256,746.2360756479405
177.3121665,0.3847943985785568,0.3250688389836454,28.279759487053575,42.03361958456388,0.344362702254483,744.8628364453979
177.341105,0.3846969999068598,0.32501759560399657,28.273154899758993,43.13469512372397,0.3472783366505111,764.3768633726023
177.370043,0.384600392523663,0.3249663534306811,28.266551470648533,43.4737168928567,0.3443603023530209,770.3868416781913
177.3989735,0.3845029369829398,0.32491512484232044,28.25995079425664,44.578252016860944,0.34743816174090475,789.9623652573155
177.427809,0.3844063201225096,0.32486406476121216,28.253372826373226,45.151067138142366,0.34660855257411777,800.1154641221192
177.4567095,0.3843094418725914,0.3248128898525856,28.2467810637487,45.71644750837962,0.3458708481869893,810.1368775971329
177.485808,0.3842123288311232,0.3247613645967513,28.240145182865245,45.81785297693062,0.34191140636517636,811.9362866339179
177.514601,0.3841140605922056,0.3247103805327025,28.233579998224887,48.03022658155994,0.35331437913502955,851.1441703745369
177.5434935,0.3840189393567095,0.3246592205037944,28.2269931511041,46.71079282665968,0.3395990008618238,827.7649121998811
177.572745,0.3839199415134357,0.32460742500120177,28.220325503386647,48.00140240455935,0.3445810548722744,850.638426564483
177.60146600000002,0.38382234756624,0.3245565690404746,28.213779798067304,49.6818181225242,0.35225549041998677,880.4198503513144
177.630347,0.3837268548475574,0.3245054299408449,28.20719864360649,48.57452811715123,0.34081974629700595,860.7999162432258
177.659415,0.3836281240372376,0.32445395988047526,28.20057590348104,50.1223031135665,0.34767752399426255,888.2310140470945
177.688277,0.3835313133367474,0.3244028547191762,28.194001113934174,50.349903116846825,0.3456536594321001,892.2670050616039
177.717379,0.3834339070418642,0.32435132472052497,28.187372675196293,50.3054482242012,0.34197206833176874,891.4818542044466
177.74652700000001,0.3833354197708208,0.32429971337940416,28.180734786549483,51.191042876491565,0.3445591428607592,907.1785112646809
177.77518700000002,0.383237642131024,0.32424896621222177,28.174209030522697,53.08426555527147,0.353749265045812,940.7318780903931
177.803805,0.3831423804577686,0.3241982934854053,28.167693824949517,52.28642822070481,0.34555025559079233,926.5957250576654
177.8327355,0.3830448249360906,0.32414706748514494,28.161108475709582,52.819750270790294,0.34610802812866004,936.0497747289572
177.8614255,0.3829473970811209,0.3240962673691176,28.154578861719585,54.07820702695572,0.3513746269523826,958.3544320908281
177.890421,0.3828514019514258,0.32404492634311804,28.147980718814228,52.52110493827081,0.3389478178834392,930.7627871411645
177.9194855,0.3827518521586774,0.32399346315112637,28.141367881430494,54.619976629297824,0.3496782914724965,967.9612146726272
177.9480615,0.3826553305800311,0.32394286491692087,28.134867169582698,55.13139909600919,0.35053231215773356,977.0273628009285
177.9768355,0.3825590150429372,0.3238919160700655,28.128322395186704,54.5759289400903,0.34490497735177345,967.1862756660862
178.0055945,0.3824610960665362,0.32384099374406683,28.121782013133053,55.88810191468025,0.35089645152542215,990.443312668337
178.034487,0.3823648210791102,0.3237898349800236,28.115212255279665,54.716108363259316,0.34175939188003834,969.6762212331494
178.063521,0.3822659382565292,0.3237384255955926,28.10861131431633,55.962905936478414,0.3474481620744036,991.7748471517278
178.092421,0.3821686457512839,0.3236872533917533,28.102041823826877,55.855258029350246,0.34491191498738266,989.8700310489596
178.1211035,0.3820706057408497,0.3236364662046446,28.095522744683674,57.479717135614024,0.35277018939200394,1018.661769764398
178.1497405,0.381974722289985,0.32358575946500195,28.089014968452762,56.67305501178354,0.34599036523601545,1004.3689526302072
178.1789,0.3818769280859239,0.3235341274118332,28.082389438638486,56.034382975242345,0.3402429336383389,993.0532608071187
178.20800250000002,0.3817774479950685,0.32348259613272007,28.07577784872226,57.57100370222393,0.34735770904969726,1020.2886117492238
178.2370855,0.3816799766289673,0.3234310992112642,28.069171673122444,56.774185324528226,0.34069157645761194,1006.1701723500809
178.265997,0.3815805645204053,0.3233799057775136,28.062605426520346,58.96493564036495,0.3515351987711572,1044.9984307545942
178.2946455,0.3814841920961627,0.3233291778383219,28.05609986588471,58.49870106519979,0.3468945526724623,1036.7386811249617
178.32368300000002,0.381386498380905,0.32327776087898136,28.04950693774785,58.000966917518774,0.34218904378090254,1027.920673639508
178.3526445,0.3812874278625103,0.32322647825948075,28.042932233162023,59.44050735052128,0.3487288694523954,1053.4360073809453
178.381415,0.3811901864046526,0.3231755335995491,28.036401843286807,59.376676976508215,0.3467110442757052,1052.3078627102739
178.410231,0.3810923475327661,0.3231245081085767,28.0298620773606,59.80569595260042,0.3476245798609734,1059.914303649638
178.4391885,0.3809947350238115,0.32307323177746544,28.023291155288636,59.29677499472766,0.3433461947133141,1050.8979919173446
178.4681765,0.3808958728846545,0.3230219011402423,28.01671427102064,60.14183447895646,0.3468867002859282,1065.8778683425412
178.49713,0.3807979901768689,0.32297063127993697,28.010146169483136,59.840075622232305,0.3441576956528049,1060.5330105968937
178.525912,0.3806992982723597,0.32291966477888184,28.0036179167126,61.20890237029306,0.3510590856416326,1084.7956253060074
178.5545755,0.3806025172501463,0.3228689077751584,27.997117474954607,60.577179434437696,0.3469825510349877,1073.60284210075
178.5837425,0.3805045670080879,0.3228172588151878,27.990503800789924,59.21236216723085,0.33908994389642216,1049.4174572505344
178.61278,0.3804043009129366,0.32276583879299703,27.98392044429853,61.17565584525853,0.35012489323097495,1084.2160179918537
178.641646,0.380307167151493,0.32271472207269425,27.97737691064894,59.85508746789738,0.3430707697433235,1060.8147137530314
178.6703785,0.3802080022350423,0.3226638413532787,27.97086456866897,61.578794591454724,0.35342379761119014,1091.3672629329192
178.69898849999998,0.3801117137932293,0.32261317714535553,27.96438091059053,60.072199675178105,0.34597838013635546,1064.668837287078
178.728396,0.3800133185231601,0.32256110022973017,27.9577174746003,57.81428227535591,0.3345900884785586,1024.6544962415198
178.757582,0.3799115376190822,0.32250941509529424,27.951105181347998,60.461626932696255,0.3513588953175286,1071.5771268749618
178.7861155,0.3798145857343645,0.3224588849998117,27.94464163226275,59.81465069629881,0.3498475204128286,1060.1136872305317
178.81480249999998,0.3797171835934666,0.32240808259114456,27.938144222099957,58.97298004560092,0.3476169528728794,1045.1995573798545
178.84392400000002,0.3796191228615118,0.3223565102097891,27.93154933220454,57.05518229723178,0.33954605597980614,1011.2127375346339
178.873339,0.3795186949428957,0.32230441752249733,27.92488892644309,56.652537303360056,0.3406805495891494,1004.0795082791667
178.902251,0.3794185676483443,0.32225321508576293,27.918343343055952,57.79841257517982,0.3515404878715351,1024.3914174687145
178.931296,0.3793215044330756,0.3222017765536347,27.91176857364872,54.68938912510973,0.33763731131670127,969.2914474633401
178.9605775,0.3792204036101767,0.322149918601305,27.905141204885457,55.15411272985757,0.34580643509599357,977.5309332973254
178.9896035,0.3791216616088161,0.322098512552216,27.898572589423146,53.78702084751164,0.3435602613962811,953.3039316632304
179.0185835,0.3790222382533723,0.3220471873678389,27.892015300562548,53.183738556720805,0.34692402496232344,942.6143387204042
179.047495,0.3789237451298217,0.32199598288465764,27.885474421727093,51.62907255504338,0.34519639830257215,915.0625561425139
179.0764375,0.3788247241008812,0.32194472286593456,27.87892743826049,50.33858260111221,0.3461959683713225,892.192826902035
179.10574200000002,0.3787259539550132,0.3218928210489656,27.872299492123844,47.36776350266019,0.3368209693350961,839.5410258623223
179.135054,0.3786243917993313,0.3218409052673086,27.865670777601814,46.89510430112021,0.3460420796838336,831.1661538768905
179.164042,0.3785255040303339,0.32178956265022907,27.859116244008096,44.64057385646748,0.3443491595223548,791.2093267962258
179.1932585,0.3784260907538492,0.3217378146146826,27.852510957731603,41.970356853901215,0.3407142012498964,743.884632089873
179.22260899999998,0.378325572995232,0.32168582850883404,27.845876298182695,39.77975475747396,0.3412605716264129,705.0604078012884
179.2519175,0.3782251753606105,0.32163391604708963,27.839252052092498,37.605988054902895,0.3417438891674122,666.5343410783653
179.281306,0.378124877407116,0.32158186111997467,27.83261064477812,35.21386794273766,0.3394883228731323,624.1379077284482
179.310866,0.3780238637948669,0.32152950162992955,27.825931407993767,33.02230885835942,0.3378862299433281,585.2960261543773
179.340441,0.3779223222826663,0.3214771147604585,27.819249710194107,31.245679816547103,0.33923460525041954,553.8082615882928
179.370028,0.3778211368700006,0.32142470580765325,27.81256622809291,29.30774052646369,0.3377110140428462,519.4611852446282
179.399493,0.3777194436279187,0.3213725121204774,27.80591122381662,28.009081909122674,0.3421639108598397,496.4447754651528
179.4288545,0.3776190260641902,0.32132050092156805,27.799280506116247,26.25501216573929,0.34021103530122554,465.35629919905574
179.4582125,0.37751797383511,0.3212684950583754,27.792651484714398,24.937411247785214,0.3423748209365428,442.0038402118966
179.48764649999998,0.3774175119250639,0.3212163536819906,27.78600620963379,23.262625507267323,0.3386188923920168,412.3202930958947
179.517664,0.3773158687953361,0.3211631777256494,27.77923013161157,21.334490659304034,0.3295118981316253,378.14606976761013
179.54742249999998,0.3772113288629266,0.3211104596447182,27.77251344733845,21.152865244263168,0.3447949733770772,374.9279649433118
179.5766965,0.3771113949777019,0.3210585989378057,27.765907016792372,19.725139510841736,0.3404666074000097,349.62301512683666
179.606436,0.3770101139454855,0.3210059126051643,27.759196444863644,18.29735213179842,0.33442567906683307,324.31683677642314
179.63621,0.3769069100297442,0.32095316416273895,27.752479005284037,17.62068512993179,0.3399142119400852,312.3240018271575
179.6655795,0.3768053212996234,0.3209011313568939,27.74585372341392,16.890684679704382,0.3438683079308119,299.38575133451377
179.695254,0.3767048297491576,0.32084855718230093,27.73916054071945,15.469813452068333,0.3334258860651408,274.20177737381744
