T(K),Fc,X,m(mol/kg),cp(J/gK),cp_err(%),cpm(J/molK)
175.110701,0.3613892932382553,0.3289693514905851,28.78544404257904,2.136458905597312,0.37355061830144365,37.85091414719212
175.1403795,0.3612880611591267,0.328916721730122,28.778581698805272,2.108337359995255,0.3680827046681909,37.3528076901736
175.1702715,0.3611849093517815,0.32886371509331735,28.771671302351294,2.1552428854600896,0.36874867287388835,38.18393615062021
175.19991950000002,0.3610821479132308,0.32881114283000124,28.764818612630183,2.234218231380605,0.37063240086237703,39.58324397594609
175.229449,0.3609806180489788,0.32875878235167844,28.75799459560175,2.26171750380905,0.3693050390351023,40.070564663250124
175.25879500000002,0.3608786144015098,0.32870674886953755,28.751214249797787,2.3630852022220266,0.37349702688749054,41.86660907176979
175.288275,0.3607782916947611,0.32865447940052306,28.744404211366287,2.3187470376322827,0.3653166122645925,41.081196868562316
175.3177055,0.3606753053125183,0.32860229928726503,28.73760687246769,2.4714428557556776,0.372398430432684,43.78663752607961
175.347086,0.3605752664592065,0.32855020938959384,28.73082233940882,2.434116714416877,0.3643968101654548,43.12545856149946
175.3767265,0.3604725659662043,0.32849766009373,28.723979037836084,2.523804887464956,0.3657711490959223,44.71460727716058
175.4060845,0.3603706744400116,0.3284456131711668,28.71720221416212,2.629610584047976,0.36835993616473534,46.58932157849947
175.436087,0.3602698653631246,0.3283924252120599,28.710277905785496,2.501137372010777,0.35165316950244807,44.31327265248406
175.466048,0.3601634626217511,0.32833931237397485,28.703364471419196,2.7890691525582896,0.36730158858927153,49.41478295874967
175.4954785,0.3600628808937308,0.3282871414600142,28.696574707027644,2.7871473824848825,0.35993924407306704,49.38088295419425
175.5251755,0.3599600825299835,0.32823449960372136,28.6897247209612,2.8880582309653664,0.35983627393997203,51.16891174811201
175.55473899999998,0.3598575997474299,0.3281820958490622,28.682906783930346,3.006915620343686,0.3604555041553309,53.27491785464173
175.584269,0.3597556645042331,0.328129752906694,28.676097820525015,3.0974177767924256,0.3583438150754449,54.878552173662094
175.613852,0.359653353626057,0.32807731743507257,28.669277884226897,3.2108962465661732,0.35732653810416415,56.88928092832247
175.643393,0.3595509920285849,0.32802495780253155,28.662468873855094,3.3510146562595042,0.35715377247395014,59.37201802688789
175.673262,0.3594489119305908,0.3279720182077787,28.655585522096253,3.377267914875834,0.34848398771055356,59.837346083245514
175.7028105,0.3593442190372459,0.327919648029139,28.648777274353787,3.753272032722989,0.36230137881913144,66.4994668865758
175.7323745,0.3592442983752809,0.32786725171841613,28.641966691121215,3.6948173912487148,0.34584979485810546,65.46398104726866
175.762175,0.3591394365394391,0.32781443759533313,28.635102874247114,4.040307386557556,0.3545839185691359,71.58551662456833
175.791655,0.3590378178917987,0.327762192782358,28.62831410705249,4.193563044685781,0.3505898716441443,74.30109960106986
175.8211805,0.3589351157070969,0.3277098686131154,28.62151608572733,4.460889046809658,0.3516094817316408,79.03779149429499
175.850752,0.3588331216785198,0.32765746418893044,28.61470869810961,4.654401005016344,0.347478316618528,82.46667515950944
175.88016349999998,0.3587300397375979,0.3276053445420884,28.6079393558174,5.062494523382372,0.35333827047963867,89.69754556341803
175.9096055,0.3586290955378827,0.3275531720641175,28.60116420272017,5.22813634471315,0.34479561920884116,92.63267482051052
175.93918100000002,0.3585257410870754,0.32750076422639174,28.594359544003446,5.666547261700627,0.348625650588451,100.4007894387168
175.9686115,0.358423810294551,0.3274486145123738,28.587589452861735,6.02085990082676,0.3463191429906596,106.67887820027367
175.998202,0.3583214014248196,0.3273961824562628,28.580783766353456,6.397968660181072,0.34338387529014786,113.36091429647573
176.02770850000002,0.3582182986645666,0.3273439003931509,28.57399860538062,6.9619226483011865,0.3466262387441408,123.35357331579768
176.0569215,0.3581164124354832,0.32729213949248226,28.567282119770034,7.544989512128006,0.34864847050135234,133.68493764110653
176.0863445,0.3580152884825688,0.32724000760757543,28.56051853995368,7.902781999468721,0.3407404368116767,140.0248593179543
176.11600349999998,0.3579118818581755,0.3271874586782627,28.55370191362631,8.53439394366182,0.3421461433756572,151.21648716303812
176.145445,0.3578090561707518,0.3271352961850533,28.546936468642034,9.217548726443743,0.34463344169122223,163.32144271140487
176.17458549999998,0.3577071006612989,0.3270836680215634,28.540241358724593,9.943582312511452,0.34826755035436174,176.18621743765826
176.203913,0.3576063083905321,0.32703170957527783,28.53350445506539,10.251376592126332,0.33977025421435253,181.64044108028438
176.23353400000002,0.3575029906545382,0.3269792321712011,28.526701319462433,10.868882531899791,0.34096036328777685,192.58238871178747
176.26269000000002,0.3574000943461498,0.3269275795627581,28.520006145774783,11.791484910303856,0.35000749274389675,208.9303190042154
176.291987,0.3572999534067746,0.32687567812944784,28.513279754541312,11.90704660691712,0.3373241796023455,210.97855874943383
176.321646,0.3571960134005374,0.32682313636315685,28.50647143305252,12.680952970668576,0.341199353459574,224.69193041861965
176.35074450000002,0.3570932893524345,0.32677158847156335,28.499792929820337,13.709943150508433,0.34993143532395854,242.9251773725072
176.3800645,0.3569931942077806,0.32671964911035123,28.493064742422295,13.776746455497086,0.3358838360784554,244.109589927837
176.409697,0.3568888641313132,0.3266671570832811,28.4862660177077,14.775315269168406,0.34230341549014487,261.80398115415403
176.4388905,0.3567865286785069,0.32661544359961064,28.479569165792714,15.671052446863419,0.34563035402669,277.6763865772549
176.4679245,0.3566851986872102,0.32656401350743847,28.472910032904633,16.436795031261394,0.3457680907207785,291.24549247229737
176.4971835,0.3565839152102608,0.3265121856986135,28.466200432799646,16.914703128452732,0.3401912854510902,299.7144976725989
176.526568,0.3564809535475314,0.3264601364195503,28.459463200491317,17.830806777215777,0.3426623252248868,315.94804213679794
176.555926,0.3563787323908031,0.3264081348969798,28.452733189515268,18.51133377730842,0.340637312677727,328.00743543375364
176.5852495,0.3562758934354818,0.3263561952809756,28.44601222763948,19.477700168783244,0.34331471662602797,345.13178212208845
176.61411900000002,0.3561738513804277,0.3263050605791837,28.439396433645566,20.797479847144103,0.3512441292053978,368.5184794234195
176.64335499999999,0.3560741240012832,0.3262532774715688,28.432697772486915,20.57315141300755,0.334829919396149,364.54460688626443
176.673083,0.3559694578849329,0.3262006236866826,28.425887536274004,21.704843076392994,0.3394967395558548,384.5987108339683
176.7024485,0.3558662282919952,0.3261486126891398,28.419161482997982,22.781978844952764,0.34298013702137037,403.68621612224644
176.731898,0.3557640341643387,0.32609645362778295,28.412417324788564,23.232068165374585,0.3375083460527977,411.66283062485286
176.7608745,0.3556601535501604,0.3260451329938734,28.405782593972212,25.33494160997365,0.35432399753259314,448.92622419985224
176.789698,0.3555612086045073,0.3259940839926829,28.399183982195126,25.184037902648747,0.34091696843253966,446.25357740901893
176.8189375,0.3554583368308505,0.3259422988660648,28.392491239786814,26.300438050222432,0.34416273687115034,466.0372439235653
176.8476855,0.3553564178459154,0.3258913848384655,28.385912081239727,27.866259086587775,0.352612320977045,493.7846543263011
176.8767765,0.3552569277136954,0.3258398639503238,28.379255515184624,27.36597216677438,0.33621361552130097,484.92110872733485
176.9065005,0.3551525428823107,0.3257872226175865,28.372455236992483,28.340231016935967,0.33756198897251044,502.1863604548939
176.935553,0.3550485532242158,0.32573577109688645,28.365809686418135,30.499502582995774,0.35198214528172717,540.4500630563381
176.9642735,0.3549488136274868,0.3256849080923518,28.359241146219745,30.766054777298226,0.34521823228182513,545.17495709515
176.993437,0.3548470900691147,0.32563326109227264,28.352572373291366,31.264781425625035,0.34133904925837605,554.0140507979817
177.0223375,0.3547441808696637,0.32558208037316416,28.345964815175957,33.10441346759642,0.3515431314526935,586.6141867985336
177.0512565,0.3546442413700382,0.3255308673953015,28.33935409612568,32.88471990737838,0.3408763481947264,582.7229113359981
177.080576,0.3545411395372841,0.32547894566453534,28.332652913976023,33.79690052957369,0.3419188169813106,598.8887024149793
177.10957150000002,0.3544383253883515,0.32542759817867123,28.32602686020991,35.28303539866837,0.3485238095234621,625.2251987772746
177.138407,0.3543374365786726,0.3253765344852261,28.31943842828869,35.77217401277679,0.3456614888614166,633.8947375195312
177.167414,0.3542356840899206,0.32532516752698754,28.31281187420164,36.408349181755405,0.344394154173537,645.1698825713853
177.1967755,0.354133527692089,0.32527317323381605,28.306105418782295,36.38647852381289,0.33739537861881164,644.7842592742016
177.225752,0.3540292190432231,0.3252218611186451,28.299487966984763,38.97214823067429,0.3537305998590014,690.6054968375149
177.254511,0.3539297078644324,0.32517093454022805,28.2929212308526,38.4131638446511,0.34239075063090785,680.7020194610902
177.28338050000002,0.3538268657836155,0.32511981265595297,28.2863303077366,40.14172517882475,0.3509747449824284,711.3351571687591
177.3121665,0.353726515706774,0.3250688389836454,28.279759487053575,40.0678233755936,0.3443363763972114,710.0276603516186
177.341105,0.3536241984021563,0.32501759560399657,28.273154899758993,41.11595227220765,0.34725306350658297,728.6033329379518
177.370043,0.353522712346108,0.3249663534306811,28.266551470648533,41.43866093226181,0.34433546258487857,734.3241250260828
177.3989735,0.3534203353005782,0.32491512484232044,28.25995079425664,42.49008308744225,0.3474152717524182,752.9583376898706
177.427809,0.3533188392886964,0.32486406476121216,28.253372826373226,43.03534619424817,0.34658549330813776,762.6230823851049
177.4567095,0.3532170686871573,0.3248128898525856,28.2467810637487,43.57353191138661,0.3458486217314305,772.1624713315563
177.485808,0.3531150514370949,0.3247613645967513,28.240145182865245,43.67004687665983,0.34188949586894657,773.875103139755
177.514601,0.3530118206521119,0.3247103805327025,28.233579998224887,45.77605137570406,0.3532935614142946,811.1979069062803
177.5434935,0.3529118957942234,0.3246592205037944,28.2269931511041,44.52003000102083,0.339577497733253,788.9422656919267
177.572745,0.3528078985598642,0.32460742500120177,28.220325503386647,45.748581384033095,0.3445604693501676,810.7159236325723
177.60146600000002,0.3527053761183352,0.3245565690404746,28.213779798067304,47.34820035445846,0.35223628018244835,839.065417607515
177.630347,0.3526050610173591,0.3245054299408449,28.20719864360649,46.29412451487303,0.3408000244323089,820.3883815164743
177.659415,0.3525013443011182,0.32445395988047526,28.20057590348104,47.7674788839869,0.34765853677786795,846.5005311400546
177.688277,0.3523996446602532,0.3244028547191762,28.194001113934174,47.98412201179228,0.3456355466634624,850.3422288343374
177.717379,0.3522973193474784,0.32435132472052497,28.187372675196293,47.94178836937529,0.3419536186584232,849.594544887618
177.74652700000001,0.3521938584692473,0.32429971337940416,28.180734786549483,48.7847947522686,0.34454088594364074,864.5363522382926
177.77518700000002,0.3520911430586408,0.32424896621222177,28.174209030522697,50.586990552290715,0.3537327967363704,896.476463061316
177.803805,0.351991070670886,0.3241982934854053,28.167693824949517,49.82749142940625,0.34553288703198026,883.0195926550695
177.8327355,0.3518885885953632,0.32414706748514494,28.161108475709582,50.33515980048831,0.34609108183486553,892.0188897267233
177.8614255,0.3517862406337175,0.3240962673691176,28.154578861719585,51.53310420076549,0.3513583721722361,913.2510400277278
177.890421,0.3516853977499729,0.32404492634311804,28.147980718814228,50.050839591487986,0.33893081499656674,886.9855082386708
177.9194855,0.3515808206926906,0.32399346315112637,28.141367881430494,52.048798141966486,0.34966226338668793,922.3954490805125
177.9480615,0.3514794247743226,0.32394286491692087,28.134867169582698,52.53561984268374,0.35051664467773047,931.0254945393716
177.9768355,0.3513782453026055,0.3238919160700655,28.128322395186704,52.00683664858344,0.3448891617076178,921.65721453013
178.0055945,0.3512753814178962,0.32384099374406683,28.121782013133053,53.25591492228672,0.3508812886579711,943.7959599225112
178.034487,0.3511742445436053,0.3237898349800236,28.115212255279665,52.14024586680149,0.34174370987450403,924.0269108801748
178.063521,0.3510703681384839,0.3237384255955926,28.10861131431633,53.32709130689249,0.34743311215396383,945.062929540711
178.092421,0.3509681623617238,0.3236872533917533,28.102041823826877,53.224602461686864,0.34489659435423903,943.2494048032847
178.1211035,0.3508651713307626,0.3236364662046446,28.095522744683674,54.77095458153039,0.35275566578244577,970.6567865334572
178.1497405,0.3507644457656293,0.32358575946500195,28.089014968452762,54.00305477277618,0.3459758158228846,957.0507810049676
178.1789,0.350661712954263,0.3235341274118332,28.082389438638486,53.39506909801265,0.3402279006982181,946.2787785533486
178.20800250000002,0.3505572091188195,0.32348259613272007,28.07577784872226,54.85780515167168,0.3473432713947913,972.2045867275091
178.2370855,0.3504548154487302,0.3234310992112642,28.069171673122444,54.099275590740234,0.340676860175069,958.7645711515446
178.265997,0.3503503830286857,0.3233799057775136,28.062605426520346,56.184695871243136,0.3515216003309288,995.7259917312753
178.2946455,0.3502491437970189,0.3233291778383219,28.05609986588471,55.74085844808711,0.3468807570395352,987.863029776243
178.32368300000002,0.3501465165491407,0.32327776087898136,28.04950693774785,55.267035478654385,0.3421748746911443,979.4686426532301
178.3526445,0.3500424429695671,0.32322647825948075,28.042932233162023,56.637358108026454,0.3487153764912573,1003.7571187285796
178.381415,0.3499402908180876,0.3231755335995491,28.036401843286807,56.57658033859726,0.3466975863142628,1002.6829281658892
178.410231,0.3498375110831708,0.3231245081085767,28.0298620773606,56.98495953968232,0.34761131095442127,1009.9234319900754
178.4391885,0.3497349691425139,0.32307323177746544,28.023291155288636,56.500487539680606,0.34333256076201146,1001.3402736165785
178.4681765,0.3496311144653295,0.3230219011402423,28.01671427102064,57.30490716014559,0.34687377668414376,1015.5997537919304
178.49713,0.3495282886808009,0.32297063127993697,28.010146169483136,57.017638512837756,0.3441444330727911,1010.5115543450152
178.525912,0.3494246128351139,0.32291966477888184,28.0036179167126,58.3206468565999,0.351046263389104,1033.6075329748346
178.5545755,0.3493229443712787,0.3228689077751584,27.997117474954607,57.71927637458548,0.34696964112534534,1022.952533252572
178.5837425,0.3492200476419964,0.3228172588151878,27.990503800789924,56.4200527183091,0.3390761293463708,999.9295095569735
178.61278,0.3491147181090399,0.32276583879299703,27.98392044429853,58.28895051343034,0.3501121793012914,1033.0549455563191
178.641646,0.3490126790926434,0.32271472207269425,27.97737691064894,57.03184876709074,0.3430577215178408,1010.7783128228854
178.6703785,0.348908506347912,0.3226638413532787,27.97086456866897,58.67267761137496,0.3534114047444971,1039.8618550184767
178.69898849999998,0.3488073553397873,0.32261317714535553,27.96438091059053,57.238492165759745,0.3459650849780863,1014.4466031159075
178.728396,0.3487039911085797,0.32256110022973017,27.9577174746003,55.089101486000956,0.33457635520723966,976.3555528146317
178.757582,0.3485970702688459,0.32250941509529424,27.951105181347998,57.609166344755764,0.3513456596445105,1021.0222265784172
178.7861155,0.3484952223139499,0.3224588849998117,27.94464163226275,56.99327586111335,0.3498344323451196,1010.1095821363766
178.81480249999998,0.3483929013649366,0.32240808259114456,27.938144222099957,56.19205026066455,0.3476032504563954,995.9121281525643
178.84392400000002,0.3482898885660182,0.3223565102097891,27.93154933220454,54.36642908917761,0.33953155650166456,963.5588455900383
178.873339,0.3481843890375119,0.32230441752249733,27.92488892644309,53.98312381556309,0.34066586914571595,956.7682401559297
178.902251,0.3480792053145857,0.32225321508576293,27.918343343055952,55.07389835013237,0.3515264290170136,976.1034305749612
178.931296,0.347977240406946,0.3222017765536347,27.91176857364872,52.114316323974606,0.33762108874014396,923.6519535383705
178.9605775,0.3478710339924906,0.322149918601305,27.905141204885457,52.5566834448252,0.34579125275680705,931.4950649368326
178.9896035,0.3477673055200614,0.322098512552216,27.898572589423146,51.255294569572634,0.3435440804339754,908.4324259240159
179.0185835,0.3476628612851676,0.3220471873678389,27.892015300562548,50.680997340743744,0.34690719410257415,898.2564236826996
179.047495,0.3475593942588777,0.32199598288465764,27.885474421727093,49.20105152585804,0.3451788830094048,872.0288346483811
179.0764375,0.3474553726679757,0.32194472286593456,27.87892743826049,47.97258224334391,0.346177553194561,850.2582224977806
179.10574200000002,0.3473516146297414,0.3218928210489656,27.872299492123844,45.14456065732606,0.33679988238392866,800.1372233719001
179.135054,0.3472449235851975,0.3218409052673086,27.865670777601814,44.69460709206475,0.34602102356444564,792.1646668533555
179.164042,0.3471410419838658,0.32178956265022907,27.859116244008096,42.548440861061565,0.3443259156274617,754.1283711574024
179.1932585,0.3470366083369186,0.3217378146146826,27.852510957731603,40.006570899320955,0.34068747623411955,709.0783949780146
179.22260899999998,0.3469310144314912,0.32168582850883404,27.845876298182695,37.92125966314813,0.34123145685704354,672.1202522600863
179.2519175,0.3468255467163214,0.32163391604708963,27.839252052092498,35.851974511024416,0.34171181254434196,635.4459340936924
179.281306,0.3467201837161754,0.32158186111997467,27.83261064477812,33.57483256833731,0.3394509580037936,595.0873043998206
179.310866,0.3466140689165077,0.32152950162992955,27.825931407993767,31.48861012157313,0.33784405437540155,558.1123492101237
179.340441,0.3465073995579409,0.3214771147604585,27.819249710194107,29.797371122187506,0.3391877725906836,528.1379825296906
179.370028,0.3464011042819356,0.32142470580765325,27.81256622809291,27.952576328127016,0.3376587677109016,495.44175597359947
179.399493,0.3462942755311286,0.3213725121204774,27.80591122381662,26.716330718295218,0.34210615319125454,473.5315083775367
179.4288545,0.3461887868804318,0.32132050092156805,27.799280506116247,25.046566515700864,0.3401450391008831,443.9372348339319
179.4582125,0.346082631513783,0.3212684950583754,27.792651484714398,23.792289168265338,0.34230385602160823,421.70709201979344
179.48764649999998,0.3459770962772797,0.3212163536819906,27.78600620963379,22.19799747488136,0.338537305214669,393.45020716280214
179.517664,0.3458703201695005,0.3211631777256494,27.77923013161157,20.36253524120538,0.3294151051389743,360.91851429357985
179.54742249999998,0.3457605009705044,0.3211104596447182,27.77251344733845,20.189624519220835,0.34469716502360637,357.85482233968327
179.5766965,0.3456555204240759,0.3210585989378057,27.765907016792372,18.830516108031112,0.340355102950319,333.76604583535135
179.606436,0.3455491246997326,0.3210059126051643,27.759196444863644,17.471348676726734,0.3342960879981862,309.6760939090608
179.63621,0.3454407089862463,0.32095316416273895,27.752479005284037,16.827193823685207,0.33977799655122115,298.25948740251596
179.6655795,0.3453339900252544,0.3209011313568939,27.74585372341392,16.132269549933934,0.3437171482740219,285.9429165557307
179.695254,0.3452284236514901,0.32084855718230093,27.73916054071945,14.779685651026632,0.333250982602603,261.9692918143088
