T(K),Fc,X,m(mol/kg),cp(J/gK),cp_err(%),cpm(J/molK)
175.1242695,0.6960210650150866,0.3289452898553118,28.78230653556775,2.6981806083993085,0.4523533103394265,47.80281241210875
175.1525825,0.6959750899849091,0.32889508228736686,28.775760464959745,2.6354431100703004,0.4484042763568884,46.691447201654476
175.180945,0.6959282499017553,0.3288447884949347,28.76920413430671,2.7842024902207236,0.44899149303629954,49.327120799990254
175.209105,0.6958820872717977,0.32879485530781505,28.762695784388164,2.8424352188734896,0.44640206116307973,50.358962640700035
175.23731099999998,0.695835885771239,0.32874484205773014,28.756177969582822,2.891221728388043,0.4455127930166589,51.22345304956699
175.2656045,0.6957895469049703,0.3286946751534101,28.749641105941063,2.936847176776729,0.443433087855472,52.03194457674244
175.2939935,0.6957430327988454,0.3286443404079833,28.74308335405455,2.9897000321383334,0.44007883533950354,52.96848919881434
175.3221535,0.6956963547901118,0.32859441314495524,28.73657966146972,3.2052910757995376,0.4413765874892863,56.78827734505055
175.35058800000002,0.6956505670560844,0.32854400065314293,28.73001374268932,3.0449208110369343,0.43174253647975086,53.94714744042201
175.379004,0.695602961508707,0.32849362240516167,28.723453268810335,3.425018118500949,0.4379828841677739,60.68154337505786
175.4071945,0.6955572090884392,0.3284436453527558,28.716946012928133,3.3767519572296356,0.4305847224939801,59.826577225844815
175.43561,0.695510318301589,0.3283932708179347,28.71038798294593,3.5609097210928202,0.4289492305556358,63.08951976491675
175.4637705,0.6954638007374438,0.32834334971824647,28.703889954075006,3.767587809763358,0.4293410777994941,66.75147884992104
175.492133,0.6954177224786314,0.3282930718934574,28.697346467973038,3.7424609292346243,0.42138743725516997,66.30649066529834
175.52030050000002,0.6953705145630287,0.32824314108432423,28.690849114146708,4.192977673003302,0.4271139502224758,74.28866748098191
175.54842200000002,0.6953250522782783,0.3281932931342234,28.68436350593519,4.107928962047594,0.41568875728788485,72.78203458683541
175.57671549999998,0.6952779695527234,0.3281431416106066,28.677839371634338,4.482874403527455,0.41785653954482654,79.42534220789437
175.6051315,0.6952319156656019,0.32809277425851363,28.671288140766087,4.453059215992856,0.40726496893115255,78.89732070152725
175.6334635,0.6951844031171268,0.32804255708529145,28.664757421234768,5.000919658293076,0.4135414514657811,88.60432471924852
175.6616425,0.6951386000549215,0.327992612357839,28.65826310126138,5.044979205212088,0.4033521735726219,89.38521188023228
175.69016499999998,0.6950915650235543,0.3279420600710939,28.651690763216934,5.355903419058141,0.4012734123803232,94.89433715596789
175.71837449999998,0.6950446040086409,0.32789206376848673,28.645191681478003,5.866460488926773,0.4034871077439402,103.94053834252601
175.746912,0.6949985743778911,0.3278414873763398,28.638618176893583,5.813980274868371,0.38779224513840305,103.0110069713428
175.775263,0.6949505051451368,0.3277912427245212,28.63208876865425,6.7650344795838935,0.400953467518284,119.8619534784059
175.80339650000002,0.6949050646338156,0.3277413847103434,28.625610569646778,6.775185605669031,0.3860258237718043,120.04215490002717
175.831526,0.694857685985903,0.327691534940513,28.619134402452524,7.7115352909078885,0.39506107515689054,136.6327107580467
175.859648,0.6948122331281216,0.32764169960087064,28.61266106982796,7.786448704123721,0.3801173574756426,137.96042047526805
175.88851,0.6947648525745445,0.3275905540656862,28.606018547819335,8.244061884071053,0.37367379161737885,146.06884882615554
175.9170515,0.6947169299122204,0.3275399776257898,28.59945093063605,9.31305583811654,0.38111254085236773,165.00983765490744
175.945231,0.6946705808301389,0.32749004376329555,28.59296772460941,9.923179776197248,0.3761995318702806,175.8205928963297
175.9734675,0.6946238270520759,0.32744000997934597,28.586472510770566,10.757146492020828,0.37515120760002624,190.59750745708462
176.00174199999998,0.6945772632672583,0.3273899099304154,28.57996966288568,11.463824037525265,0.3706557931232854,203.11916380657615
176.0298715,0.6945303572437534,0.3273400678551539,28.573501260471872,12.573255104963906,0.37449185373998295,222.77700666176636
176.0581575,0.6944842465213652,0.3272899495165624,28.56699797165985,12.974063530272382,0.3639098088618244,229.87932458442063
176.0863025,0.694436796055725,0.3272400820226997,28.560528193809233,14.544394071980456,0.37505815528847425,257.70377130370537
176.1144625,0.694391125611595,0.32719018894902585,28.554056057045152,14.76974672603338,0.36057341694788914,261.69741862007527
176.142962,0.6943435984536438,0.32713969535850074,28.547506998373407,16.03897164308579,0.36442042800433117,284.18697872343785
176.1712175,0.6942967777029847,0.32708963504798033,28.54101510669843,17.111217892546755,0.3640683917375521,303.1864798909262
176.19941599999999,0.6942500312881337,0.32703967667771916,28.534537397672214,18.238259007102215,0.3639388693260859,323.15697884619874
176.227271,0.694203372517394,0.32699032779472,28.52813966023651,19.87656891107118,0.37081123767221585,352.1865895360364
176.255347,0.69415773774837,0.32694058828955697,28.521692230705966,20.1309694764661,0.3570281323564514,356.6952552053965
176.283423,0.694110319831162,0.3268908496814535,28.515245870297637,22.25321212586255,0.36936150292615794,394.2998351488514
176.311724,0.6940646589301807,0.3268407133620198,28.50874892868517,22.079151594925083,0.35051255851981367,391.21682548381193
176.340216,0.6940164674624258,0.32679023956714054,28.502209232630765,24.381346478965305,0.36353568420964427,432.01029228259546
176.3680445,0.6939701463780177,0.32674094201251236,28.495822884058857,25.877345447516923,0.3654449502940411,458.5190305632516
176.3962425,0.6939241290188359,0.3266909907330493,28.489352801279264,26.216922858771436,0.3536610237830591,464.53731913356614
176.42458549999998,0.6938765547596975,0.3266407834258315,28.482850523093248,28.255577721060927,0.3610319910816114,500.66166799567543
176.452597,0.6938300292255344,0.32659116414780515,28.47642535235887,29.671670658021192,0.3609492984639339,525.7549775736309
176.48075699999998,0.6937835284923927,0.32654128260844656,28.469967175871506,30.69696765089783,0.3566735587756357,543.9238709864959
176.50876449999998,0.6937364826918804,0.32649167197188805,28.46354502207873,32.926042056243695,0.3642605745461379,583.4228217988091
176.53673400000002,0.6936904618775234,0.32644212939713174,28.457132623060712,33.65846110176035,0.3571386706222833,596.4023984977986
176.56472250000002,0.693643515246473,0.3263925539035367,28.450716907468934,35.82212122073465,0.363352734467749,634.7426291370347
176.592581,0.693597404663019,0.3263432093923472,28.444332021710238,36.95042304944779,0.359946549999461,654.7372018524187
176.6206685,0.6935508633465773,0.32629345997140696,28.437895689886602,38.141919756812484,0.3571435332436811,675.851679012893
176.64897,0.6935039641244689,0.32624333221030305,28.43141137167354,39.30818230439492,0.3542666154997681,696.5191572208217
176.6769775,0.6934566833732935,0.3261937258627503,28.424995451143353,42.110947265671754,0.364295090111404,746.1847300855371
176.704863,0.6934107355353681,0.3261443362552938,28.41860850150157,42.712231441152404,0.3569986819961143,756.8413377057399
176.7328895,0.6933638336130813,0.3260946975589431,28.41219028353685,44.711942690106476,0.3604663702150151,792.2775804292032
176.760851,0.6933173893685334,0.32604517461474203,28.40578797430811,45.96771136437451,0.35840912685788306,814.5316206399127
176.78904949999998,0.6932706766903018,0.32599523253725543,28.399332432477475,46.90427236060709,0.3542795037362701,831.1295444883616
176.8170305,0.6932234153148137,0.3259456762721355,28.392927706528994,49.818093509193666,0.36376780415057713,882.764098093817
176.84474799999998,0.6931774004018633,0.32589658725811727,28.386584297214927,50.88802760651394,0.360744473240347,901.7256139328772
176.8723665,0.6931309902953248,0.3258476741318831,28.380264535418224,53.259414828092766,0.3662272570571522,943.7487804106814
176.9002215,0.6930852790045723,0.3257983427029526,28.37389165611372,52.91360284841049,0.35462734170025534,937.6237116096355
176.928412,0.6930380527404805,0.32574841764315254,28.367443038061488,54.83290885126656,0.357426896902423,971.6364178312847
176.956221,0.6929911947026275,0.32569916873505583,28.361082691386734,57.44019672558797,0.3642306244327748,1017.8403198318964
176.9839845,0.6929452144678439,0.325650000905873,28.354733742527678,57.90811267377389,0.3584508384716076,1026.1346999950397
177.011824,0.69289848102146,0.32560069897086896,28.348368406382654,59.97645352803081,0.3621531002214215,1062.7888264811604
177.039877,0.6928522199731315,0.3255510194190441,28.34195525773656,59.720479570472136,0.35302442720222893,1058.2559736119629
177.0677815,0.6928047455167358,0.3255016033091874,28.335577054103123,63.41283924213076,0.3659568110643164,1123.688350044244
177.09572450000002,0.6927589535721306,0.32545211946502517,28.329191044344626,62.082516899429734,0.3520049983105338,1100.1179078451778
177.1236825,0.6927113223754364,0.32540260948860267,28.322802599764888,65.84228038650186,0.36550176198468015,1166.7451990622096
177.15159799999998,0.6926654531904628,0.32535317518929857,28.316424855569707,64.5638045818537,0.35297261824524767,1144.0934808859397
177.17962849999998,0.692617936016171,0.3253035376440111,28.310021830036955,67.47446366848169,0.3624239844929807,1195.6748129206196
177.207087,0.6925716547494607,0.32525491339584806,28.30375042881169,69.5237695030558,0.36763163427229617,1231.9927961977914
177.23462899999998,0.6925260245258618,0.32520614164342454,28.297460910880165,68.96416254687642,0.36023177228843956,1222.079743403856
177.26250299999998,0.6924794365952854,0.32515678233306744,28.291096548125243,69.55354899327179,0.35891808342436154,1232.5274764566864
177.29072050000002,0.6924326673593886,0.32510681509832606,28.284654748132603,68.81346323189982,0.35155801777165074,1219.4162595417272
177.31856,0.6923849006168609,0.3250575175477871,28.27830021885765,73.12544261140249,0.36880981920851197,1295.8308300786637
177.3459535,0.6923393703941685,0.32500901006553534,28.272048436590847,72.52465814947456,0.3628164008850193,1285.1881298420915
177.3740375,0.6922930708124415,0.3249592801651256,28.265640038332965,70.60503274196206,0.35105517575464773,1251.1746004868041
177.402102,0.6922451978413582,0.3249095850786992,28.25923706949336,73.71414004640305,0.3632816766345404,1306.2740773844746
177.43001800000002,0.69219893586676,0.32486015321493206,28.252868950738055,72.29330974634289,0.3547072366101911,1281.0994688063304
177.457877,0.692151532522082,0.3248108225337433,28.2465147965318,74.81623949382873,0.3647802173641995,1325.8117195358218
177.48559799999998,0.6921054342155868,0.3247617364467791,28.240193069392326,73.6497905720295,0.3581570394345608,1305.1448791451428
177.51360549999998,0.692058465958146,0.3247121432711283,28.23380696835617,73.64892030664716,0.3573798756444917,1305.1331893164443
177.5416745,0.6920113777561386,0.3246624414058651,28.22740781239311,73.56629824284222,0.3566064530701307,1303.6727790606278
177.5695595,0.6919641745336333,0.3246130655423951,28.221051562012914,74.75284537244349,0.36209556209171573,1324.7034232888652
177.59715849999998,0.6919176763354102,0.3245641962724096,28.214761441450584,75.07077843775461,0.3639808338441821,1330.3412988601976
177.6247235,0.6918714063409148,0.32451538736475377,28.20847999877423,74.6869494899919,0.36297546389503027,1323.543129405372
177.65256349999999,0.691824994784616,0.3244660916656598,28.202136829992494,73.1495156326549,0.3569022802473154,1296.301625452337
177.68069300000002,0.6917777720354021,0.32441628348992096,28.195728657990134,72.64345262764661,0.35556163541495134,1287.3372482025563
177.7087765,0.6917303582527411,0.3243665568854705,28.189331923217736,73.02018490189809,0.3580566829834849,1294.0171483672939
177.7366735,0.6916832615754068,0.32431716061511534,28.18297861415722,73.46873470158064,0.3603306536926501,1301.969770051067
177.76446349999998,0.691636446927131,0.3242679538946652,28.176650608373883,73.69483692137315,0.36079858467925313,1305.9803261402828
177.792395,0.691589682136932,0.32421849669992714,28.17029132007746,73.07595952790318,0.35670536153191273,1295.016606227491
177.820269,0.691542362432082,0.3241691413779907,28.163946058624816,74.65108336193458,0.3622891843076308,1322.9339493283564
177.8481275,0.6914957630126366,0.32411981354638986,28.15760525734417,73.91586270717895,0.35708783379050557,1309.9084150564636
177.876204,0.6914484668254702,0.3240700997425714,28.15121577798079,74.19600325727632,0.3566801492964024,1314.8767268322338
177.904021,0.6914011038829327,0.3240208454397742,28.144886282922133,76.04904017414856,0.36376455863564805,1347.7194540241903
177.93181099999998,0.6913546541268204,0.32397163894603026,28.138563852605206,74.82583711296164,0.35736659211002586,1326.045959557826
177.95984099999998,0.6913073534926878,0.3239220074818998,28.132187751089678,74.92252515641776,0.35755951618282883,1327.7632419958554
177.987528,0.6912600653434786,0.32387298332500036,28.125890588660518,76.73766759385938,0.36627357128585597,1359.9347071914522
178.0151545,0.6912138938366676,0.3238240662513261,28.11960809121739,74.86989631875942,0.3591072800283886,1326.8380560985506
178.043162,0.6911667813139375,0.323774474500294,28.113239871712373,73.77809025280445,0.3564093020854809,1307.4928986342445
178.0711235,0.6911192945225867,0.32372496412796226,28.106883033955402,73.8506653421778,0.3603122358239792,1308.7828080735908
178.0989745,0.6910723084569824,0.3236756493281124,28.10055223174172,72.50574781799862,0.3592678075976937,1284.9518092826454
178.126761,0.6910251660145388,0.32362644863654044,28.09423699817592,71.57581109009674,0.36203780611450087,1268.4750054989106
178.154887,0.6909783692399244,0.3235766466868508,28.087845524766905,67.33850527262287,0.3508337438815758,1193.3843964000935
178.18330650000001,0.6909300494280864,0.32352632491098454,28.081388293867477,65.70481419762683,0.35466772109150124,1164.4352249125548
178.21113450000001,0.6908822304128847,0.3234770503461382,28.075066370688194,64.85144274278224,0.36603442206783615,1149.3148527534536
178.23880250000002,0.69083588244341,0.3234280589341445,28.068781688925835,59.96526795709027,0.3588849539221049,1062.7237401421612
178.266806,0.6907885757343609,0.32337847328285657,28.062421704099307,56.04879812200957,0.35758056490473994,993.3176435210804
178.294817,0.6907410630054578,0.3233288741624058,28.056060924166854,52.71751012913053,0.3589750485826472,934.281990628739
178.32293149999998,0.6906937015008481,0.32327909156960216,28.049677552627056,48.82249447634937,0.3553347509702438,865.2553608619218
178.3510575,0.6906458084416998,0.32322928839363485,28.043292481503343,46.25607666502438,0.3590648895506794,819.7744433254089
178.37917199999998,0.6905983783487502,0.32317950534622275,28.03691093009213,42.94510440732933,0.35603166242864853,761.0978415335653
178.40742749999998,0.6905504943107046,0.32312947237529477,28.030498287467577,40.25218009110463,0.35599120413765817,713.3743457213171
178.4357325,0.6905025561887851,0.32307935148547096,28.024075326874826,37.6716353625849,0.3553475074626568,667.6422451313447
178.46396099999998,0.6904544739991372,0.323029365775849,28.01767063676968,35.701888701094404,0.35843565062765953,632.7348837444849
178.4920755,0.6904067652571644,0.32297958163772456,28.011292714133738,33.55671324078063,0.35875615481500767,594.7182282856808
178.5203995,0.6903590398201855,0.3229294262125875,28.004868173786175,31.046800256158452,0.35405927349543526,550.2371850983637
178.5490935,0.6903105894686856,0.32287861526610684,27.998360636476566,28.850042918531248,0.35060444232896143,511.3059245421655
178.577296,0.6902615765914796,0.3228286743178722,27.99196547454987,28.619472101464734,0.36713823511175464,507.2210054551367
178.60544099999998,0.6902147655714376,0.32277883483642666,27.985584246235756,25.709781199571434,0.3529399967714856,455.654055923941
178.63381049999998,0.6901659171516354,0.3227285974349149,27.97915302043332,24.976600298905364,0.3623137855338551,442.66118423552774
178.66226799999998,0.6901183130059925,0.3226782038095899,27.972702753846733,22.70732924302807,0.35188145570357116,402.4439810524306
178.690676,0.6900691340218715,0.32262789743477477,27.966264612376175,22.345924435277237,0.36476121597410793,396.0399207025371
178.7189885,0.6900216678144435,0.3225777597577788,27.959849012030507,20.408026899260747,0.3553752701340151,361.69533918069277
178.7475415,0.6899727824289109,0.3225271957488277,27.953379820134696,19.573479643613226,0.36021620718211256,346.9055108566086
178.775797,0.6899244669032135,0.32247715812906486,27.946978925385608,18.720362905148598,0.3640070717063232,331.7864738357217
178.80398,0.689876563380802,0.32242724844033405,27.940595337553194,17.647573636361006,0.3634970958794742,312.7740154555969
178.83227749999998,0.68982846401109,0.3223771355057474,27.934186700117674,16.632286104623315,0.3629457818424641,294.78057709944443
178.8607505,0.6897801396262946,0.32232671127613005,27.92773920972841,15.611714590742505,0.36118154198939745,276.69338935919376
178.88938000000002,0.6897314109933379,0.3222760093755516,27.921257182317966,14.752703946611554,0.36118042187450217,261.4695244042681
178.917933,0.6896825215847449,0.3222254424218953,27.91479337323747,14.150148375518674,0.3651801293224079,250.79086284843666
178.946112,0.6896340222612299,0.3221755372810425,27.908415107106677,13.753710182991155,0.37205516258194465,243.7652720481915
178.9745585,0.6895863775628532,0.32212515784157564,27.90197717448128,12.480439108146358,0.3611321391321366,221.19896597139612
179.00316850000002,0.6895369338402358,0.32207448826219875,27.895503130339417,12.266564489715872,0.37064463251098856,217.40896164410162
179.03148499999998,0.6894886998546688,0.322024337899137,27.889096379256475,11.613432589644045,0.3703919923109976,205.8336401008086
179.060206,0.6894402265437267,0.321973470530281,27.882598998255194,10.732159154998257,0.36417113023235786,190.21472300639311
179.08853,0.689390578993474,0.3219233056660498,27.876192304168274,10.977018136975103,0.3822088271282784,194.5551191345357
179.116675,0.6893434310084443,0.3218734572089094,27.8698269582393,9.942643317071756,0.37100909697304546,176.22251234524595
179.14529299999998,0.689294363382372,0.3218227703572428,27.86335551390067,9.580205746096706,0.37403070453897647,169.7991977412205
179.1734835,0.6892455669562404,0.32177284001787015,27.856981603008,9.477147815954376,0.3834230362796423,167.9730864687098
179.20171950000002,0.68919792997125,0.3217228284231111,27.85059826007546,8.735667289546148,0.37663304575828566,154.83152274993216
179.2304785,0.6891489462000552,0.32167188978971756,27.844097560063492,8.267526193796144,0.37485309005848827,146.53459050583137
179.2591385,0.6890994874662612,0.3216211257882722,27.837620117522256,8.119777872836744,0.38149019654237526,143.91630335434138
179.287371,0.6890508103682597,0.32157111827895857,27.83124015052,7.956825593186461,0.3876319568835495,141.0285164250988
179.31570299999998,0.6890027837522051,0.3215209337977911,27.824838550890057,7.425185330969536,0.38306163364100715,131.60598893672895
179.344233,0.6889537339140662,0.32147039784524073,27.818393074003655,7.222331801039202,0.38666724515362333,128.0109311642217
179.37253800000002,0.68890499700638,0.32142025967880705,27.811999280439174,7.059661669125762,0.3904176450631092,125.12807511480347
179.400805,0.6888566865131628,0.3213701880512715,27.805614915032486,6.747068808180594,0.3908730816525462,119.58790792102013
179.42924349999998,0.6888080480535883,0.3213198118380504,27.799192664198046,6.461627478499111,0.39113192294516974,114.52895739171264
179.457701,0.6887591173341597,0.3212694011561639,27.792766973412157,6.290868243278463,0.39314740016603844,111.50266356526974
179.4861355,0.688710381565862,0.3212190303912961,27.786347324016585,6.065920471293627,0.3942544571289545,107.51588292973956
179.514639,0.6886614975074122,0.32116853655160776,27.77991294518902,5.861757210327724,0.3955527488381652,103.89747764047257
