T(K),Fc,X,m(mol/kg),cp(J/gK),cp_err(%),cpm(J/molK),cp_SMA_1K
181.9947225,0.5454500158642125,0.3167701692621084,27.223083028678,3.073927428547831,0.3824734681291037,54.49804128868964,
182.0245995,0.5453734572507306,0.3167171040227982,27.216408776549656,3.127860676481535,0.3871666165193017,55.45440014108355,
182.0542095,0.5452976855254742,0.316664510687103,27.20979490065406,3.164282042932493,0.3870757136324532,56.100291094869846,
182.0838265,0.5452224311445222,0.3166119025902509,27.2031801869012,3.119583377027604,0.3861956709607356,55.307985760937584,
182.113417,0.5451465666231802,0.3165593392240035,27.196572114422068,3.1631572878580583,0.3879660585234363,56.080689977154265,
182.1431985,0.5450713908133161,0.3165064341945091,27.189922115605157,3.0378138524436227,0.3820445103784812,53.858597854872606,
182.173342,0.5449944934107024,0.3164528836475041,27.18319202553776,3.022829414055534,0.3826575613326412,53.5930982499596,
182.2030965,0.5449174106017831,0.316400021736857,27.17654951561901,3.17196661024277,0.389698761367219,56.23738981232472,
182.2328015,0.5448424426326338,0.3163472453435195,27.169918776357758,3.041353546873579,0.3837181326810272,53.92184919512676,
182.262621,0.5447655543455406,0.316294263067191,27.163263199969787,3.1347770376226864,0.3877348536888337,55.57837595035273,
182.291975,0.5446899436144144,0.3162421054595468,27.156712225055497,3.216360807320119,0.3910123522453954,57.02499582680716,
182.321459,0.5446153790183944,0.3161897144330475,27.15013293889457,3.0946367111464985,0.3856760801461824,54.867034188918296,
182.35143900000003,0.5445390458038398,0.3161364395370481,27.1434436897834,3.0373353600762343,0.3820400620757694,53.85126277194593,
182.3811745,0.5444618843603818,0.3160835966030597,27.13680970775503,3.177577298207744,0.389327666818923,56.33789190285537,
182.4108795,0.54438674513674,0.3160308053506281,27.130183237477013,3.0434714458650234,0.3833559480510697,53.96038267585399,
182.44068,0.5443096810360614,0.3159778418301615,27.12353617159225,3.138011866393532,0.3882400920003054,55.63674278411415,
182.4702325,0.544233994669473,0.3159253165373408,27.11694512100916,3.1312149839031407,0.3875980938511063,55.51640256061895,
182.49988,0.544158143572331,0.3158726198430768,27.1103335794383,3.1136461495953136,0.3859370844053619,55.2050750035268,3.1081673677569666
182.529547,0.544081912020629,0.3158198859134863,27.1037183857156,3.1345175986049063,0.3868124213393972,55.57529555651904,3.1078648815349794
182.5594315,0.5440059027718527,0.3157667627508989,27.09705539574801,3.0378402760608787,0.3828471921071055,53.86136231796976,3.1096491773843753
182.5890335,0.5439284957932236,0.315714139155842,27.09045608418906,3.2325637314753086,0.3915087073057984,57.314012115377,3.1091853812883223
182.6187575,0.543853879161753,0.3156612960522587,27.083830266250143,2.9903671708025734,0.3803703846322653,53.01997932300262,3.10787431809746
182.6488705,0.5437757858373929,0.3156077586850582,27.07711844037973,3.086957271025069,0.3852153119434473,54.73271552178948,3.106843934454691
182.678671,0.5436991116761091,0.3155547742120815,27.070476963059075,3.09969016306664,0.3854196803623815,54.958641486031695,3.1094462688152453
182.708426,0.543622564720815,0.3155018679469482,27.06384631481416,3.104395009605951,0.3863043837830399,55.04222796018706,3.1161396838470807
182.7380475,0.5435460653574027,0.3154491963675214,27.05724609741648,3.1447286042827827,0.3885497446898345,55.75752879036112,3.109154512379309
182.767531,0.5434701464034911,0.3153967674966261,27.050677302154444,3.1540045142587365,0.3882919853241698,55.92216403688257,3.1112432832938377
182.797255,0.5433942987233775,0.3153439082388991,27.04405560233201,3.066988126920812,0.3839951920759228,54.37948323392077,3.113982087218176
182.827113,0.5433170825552788,0.3152908079195264,27.03740473401248,3.1148896529056995,0.3856560288945887,55.22897415629086,3.112029138994884
182.8569135,0.5432404855480634,0.3152378070808512,27.030767354344945,3.0927964332378566,0.384503951867084,54.83741481783012,3.1107203399311176
182.886828,0.5431635056736156,0.3151846006822713,27.024105265458296,3.080743449243171,0.383897048579767,54.62387458355686,3.111540812494234
182.9168645,0.5430862611013696,0.3151311744452046,27.017416691675624,3.0586261043778684,0.382110096321112,54.23188456873657,3.109149966045965
182.9466955,0.5430085915686138,0.3150781108929589,27.010774556239262,3.1633761904232887,0.3873804318727214,56.089358805399335,3.1111586123865935
182.976412,0.5429323469918583,0.3150252481837737,27.00415858424372,3.105400310852014,0.384641306815618,55.061564734933846,3.1111275804551064
183.0064185,0.5428552080084302,0.3149718667108645,26.99747872313802,3.063642897000252,0.3815311543374193,54.32133501193846,3.1131739094897166
183.0362,0.5427774060143796,0.3149188826322133,26.990849619136256,3.188526735361006,0.38770734448786,56.53581819674934,3.1097108764446193
183.0657445,0.5427013690089242,0.3148663173478784,26.984273925778325,3.14851297566668,0.3866082298700093,55.826502698395466,3.11047964907425
183.09561,0.5426247313610864,0.3148131780415718,26.97762745023264,3.075007228538289,0.38242855646501,54.52333414624015,3.115474362661805
183.125533,0.5425469751970035,0.3147599334840734,26.97096884415447,3.1281242440039176,0.3851182531465144,55.46532871487974,3.1100334932621116
183.155295,0.5424699798305068,0.3147069724703411,26.96434672366105,3.1262932207024776,0.3850793590605049,55.43303169537085,3.116760503396309
183.1846985,0.5423929956729089,0.3146546465094325,26.95780501381004,3.2504055251379187,0.3924332513709653,57.633869599292005,3.1179518979783416
183.2146325,0.5423177961054312,0.3146013735108588,26.95114593290904,2.934470780338535,0.376395022286172,52.032100055144646,3.1189168079696583
183.244925,0.5422380043375006,0.3145474594302335,26.944407771119444,3.112371757967558,0.3856832539937049,55.18669429084752,3.119719365967911
183.2743745,0.5421608876214439,0.3144950427341124,26.9378577680382,3.2278963710501847,0.3907469757883124,57.235279768664086,3.120935462748243
183.3037095,0.5420854019764247,0.314442826905581,26.931333861276947,3.1499605677281948,0.3879581764895333,55.85353311290484,3.1215096677926484
183.333529,0.5420088189383728,0.3143897456628402,26.924702847208685,3.0501375429784483,0.3823702563006128,54.08368635264071,3.125663768146085
183.363585,0.5419307610882749,0.3143362403409644,26.918019895361898,3.065231427222177,0.3843238767918395,54.35149199631567,3.1263748130750186
183.393515,0.5418528900616462,0.3142829562247372,26.911365609127436,3.0962885189666,0.3844053791964695,54.90235285267708,3.1296065053255377
183.423327,0.5417754241439855,0.3142298790935486,26.90473819988288,3.111765421446409,0.3848047660808179,55.176952877286304,3.1305553309786585
183.4530435,0.5416981041063325,0.3141769689057278,26.89813265679261,3.136956780722949,0.3861006381707295,55.62380859938901,3.1339044349780236
183.482527,0.541621073012198,0.3141244705152011,26.891579531577328,3.200790171079897,0.3892807712998067,56.75585954866413,3.134927217923333
183.512423,0.5415449030024643,0.3140712344992043,26.88493535641427,2.995903026061996,0.3801383177616025,53.1229989792888,3.1319747877744257
183.5424525,0.5414656662823124,0.3140177575728293,26.8782621524464,3.160655868012355,0.3864636695913094,56.04454964083551,3.137122068404071
183.571921,0.541388741031741,0.3139652765626788,26.871714236961363,3.207660538037746,0.388753631537351,56.878205483334426,3.1340721005128613
183.6017405,0.5413123604934501,0.3139121672881889,26.865088954413626,3.047574171885738,0.3809669900898568,54.03972097758145,3.1375824148274285
183.6315485,0.5412335472001616,0.3138590753009262,26.85846685354613,3.219085515365272,0.3891355996792576,57.08114239398999,3.137489821144555
183.661139,0.5411571656509382,0.3138063675351015,26.85189368979465,3.127464686814189,0.3841122799847011,55.45668124549712,3.1377257155614044
183.6909775,0.541079422791252,0.3137532148029637,26.845266057014705,3.1324971027714152,0.3840790858265493,55.54608694396374,3.1384057363395637
183.720816,0.5410016879350882,0.3137000588225221,26.83863904589389,3.1316819815465293,0.3846258892328477,55.53180314232284,3.133663718397868
183.7505135,0.540923882865591,0.3136471507862483,26.83204396554287,3.186075894814088,0.3870230758617289,56.49650246824276,3.1387142970124926
183.7800965,0.5408468213294755,0.3135944435087387,26.825474921043227,3.173527485768521,0.3862443137472912,56.27416103645096,3.143159292514382
183.8096185,0.5407695517505159,0.3135418416835903,26.8189200250811,3.208227538937642,0.3872656109916454,56.889647627985,3.1412923581286107
183.8392285,0.5406927473895848,0.3134890798050089,26.812346193392795,3.1390651804894527,0.3846876239214009,55.66340066958404,3.1375175102285553
183.868838,0.5406149567733652,0.3134363155405836,26.805773074897928,3.2026739697555087,0.3884686260038392,56.79151472387306,3.1421158860786162
183.8985045,0.5405380937528085,0.3133834464000192,26.7991879046975,3.113003521449269,0.383686650485698,55.20159890957809,3.142334639127085
183.9282475,0.5404599430651491,0.3133304375940028,26.79258635637625,3.172495640356276,0.3869210635437097,56.25671978901565,3.14666940599873
183.957762,0.5403826184466629,0.3132778327120035,26.786036119010603,3.198150810563825,0.3872526645430218,56.71182556567633,3.14376718725658
183.987765,0.5403056003531953,0.3132243537561154,26.77937807260454,3.005017685789153,0.37848672285481,53.287219420403495,3.1427468763249196
184.017672,0.540225657404664,0.3131710424876141,26.772741934983,3.238650438408203,0.3893008408447663,57.43034641700408,3.1380744715524678
184.0473465,0.5401490793920308,0.3131181422675431,26.766157982515548,3.0848278270598706,0.3826277151723494,54.70280727874859,3.1381837157223447
184.076918,0.5400702894705706,0.3130654222803722,26.75959747067662,3.2678636623619743,0.3911235039468425,57.94873140491663,3.1373089635296503
184.1064895,0.5399941895459653,0.3130126989001404,26.753037543618507,3.071859043320583,0.3827362741512209,54.4731646740698,3.1331973319631965
184.1363815,0.5399153363832501,0.3129594006324064,26.74640711148296,3.136144654176789,0.3857801214038139,55.61330986791741,3.1326705912438
184.1660215,0.5398374945723373,0.3129065482330093,26.739833162217863,3.1494139271598947,0.3870170333463872,55.848784208475855,3.129755181222637
184.1957685,0.5397598993797953,0.3128535015627187,26.73323606578545,3.089176915120281,0.3841055251192322,54.78076437447776,3.1268873505589903
184.225626,0.5396814331910429,0.312800254326096,26.726615050396862,3.1061904532357523,0.3853129561046491,55.08263659624704,3.125544313037539
184.255007,0.5396031949306362,0.3127478534154738,26.7201002728612,3.263501605031801,0.3927372863739254,57.87243841567575,3.1271446083618004
184.284228,0.5395271677478709,0.3126957344508395,26.713621533831155,3.164420601933959,0.3880318371435291,56.11558030039198,3.124758037961193
184.3141125,0.5394497075084146,0.3126424285222386,26.706996263490264,3.021615739126322,0.3811270689236102,53.58334519339442,3.1231224861423907
184.3438705,0.5393701317082404,0.3125893446664103,26.70039961517365,3.206482321880505,0.3903816881425675,56.86182144663588,3.117665126788219
184.3734685,0.5392932734401836,0.3125365426781763,26.69383900475206,3.072669030870125,0.3839765480167775,54.48902311923544,3.116373605876392
184.4029375,0.5392144746215869,0.3124839672908716,26.687307550585267,3.2436705926025238,0.3928274196896151,57.52164504656679,3.111846544211901
184.4325245,0.5391382330008374,0.3124311778204868,26.680750505794062,3.013089984213303,0.3823850872208324,53.43280545945135,3.108065777164157
184.462443,0.5390587491940926,0.3123777932405667,26.6741205655892,3.102266209046516,0.3867207015384942,55.01438642246932,3.1046225979768933
184.492228,0.5389806994730869,0.3123246432141707,26.66752077766338,3.041928408816543,0.3849452031547541,53.94454446504834,3.0962537470423457
184.5222685,0.5389018538597382,0.312271033549301,26.66086494851735,2.999617327837793,0.383111597684409,53.19437817222369,3.0982438743033094
184.5520535,0.538822393250324,0.3122178761502691,26.65426629426516,3.130914293460744,0.3890180948579649,55.522932048313024,3.091246996873977
184.5816595,0.5387448299882989,0.3121650345521597,26.647707852572225,3.0678650647783154,0.3855638808880858,54.404996809036014,3.092772838989772
184.611567,0.5386662486399739,0.3121116511068558,26.64108318259786,3.0296649874262607,0.3842591977228081,53.72772839991728,3.084775689796586
184.641341,0.5385870306339648,0.3120585022212366,26.634488641899896,3.1199615746457283,0.3889775240300105,55.32920706910848,3.089267245425817
184.6711185,0.5385090893940433,0.3120053433483918,26.627893881188136,3.0299584442501986,0.3831803497450208,53.73326165933124,3.0867206174851893
184.7009795,0.5384297877560723,0.3119520316398778,26.621281183481106,3.0868338270420783,0.3865883530312495,54.742057448120526,3.0842031557594365
184.730383,0.5383513410663748,0.3118995330137723,26.614770340531926,3.1860920225714224,0.3920902477015213,56.5024779057137,3.088109772528804
184.7596915,0.53827439275568,0.3118472003315598,26.60828106653728,3.1049325011934146,0.3886702119052435,55.06335278356064,3.0856853269902063
184.789141,0.5381963846651927,0.3117946121724638,26.601761107461165,3.117918723929257,0.3900512242128161,55.29382000438429,3.0802115367441987
184.8187925,0.538118627759768,0.3117416595279945,26.59519696567122,3.0226773208958124,0.3857678149873612,53.60495267554994,3.081826660339539
184.84849,0.5380394866350079,0.3116886209252419,26.588623180713878,3.0951534694873293,0.3885344172644891,54.89043145176562,3.08386495307732
184.8780845,0.5379614221028984,0.3116357624679953,26.58207273147137,3.048753873162814,0.3866657406153661,54.06773098750839,3.081506749208338
184.9079385,0.5378827613443056,0.3115824366524436,26.5754653844618,2.984457441825977,0.3856548793254677,52.9276368654109,3.08084168941148
184.937735,0.5378032571609814,0.3115292096553388,26.568871302280535,3.055427547989307,0.3891406560702136,54.18641707170089,3.0778798218424313
184.96773,0.5377248359013092,0.3114756241273103,26.562233832968108,2.9136098787891944,0.3811101416496097,51.6715140620172,3.0775486336446973
184.9976945,0.5376442127427162,0.3114220891236154,26.555603653547298,3.072682012661914,0.388276680030558,54.49275234366249,3.0781733803679323
185.027449,0.5375658877265502,0.3113689253733107,26.54902047312947,3.0007566058109187,0.3849801975108007,53.2173478302846,3.0785864189718786
185.0570815,0.5374863120115334,0.3113159756928124,26.54246481088793,3.136706458996912,0.3908585279639348,55.62853968230286,3.08200005994152
185.0868015,0.5374085698343452,0.3112628657223124,26.53589031582755,2.9959605897936403,0.3834887564117407,53.13261687477916,3.08197363549057
185.1163695,0.5373284632454527,0.3112100234483278,26.52934996519428,3.2245719347144224,0.3928368792140239,57.18715639905762,3.081308634192734
185.145861,0.5372514643552797,0.3111573139716367,26.522827050701824,3.0495593041954625,0.3835807821639113,54.08350566442395,3.0862883242891357
185.175856,0.5371716982130808,0.3111037005703327,26.51619329753456,3.063820228484294,0.3839327773640574,54.33658899513855,3.0822619124675197
185.2054275,0.5370919570221837,0.3110508401430394,26.509653723003886,3.222001885278763,0.3909183017054615,57.14210114182683,3.0874297649620708
185.2351515,0.5370143776929546,0.3109977031023437,26.503080938850303,3.023759304923451,0.3806701283278861,53.62643944942781,3.0865072512449427
185.2652915,0.5369337582732453,0.310943818262481,26.496416690937547,3.077392736667546,0.3830739936129587,54.57779901047649,3.0857384801558108
185.294886,0.5368538981971619,0.3108909046214491,26.48987357098057,3.2193348041755128,0.3905973463271887,57.09532665364208,3.0854014765666777
185.3244235,0.5367761173359171,0.3108380888710938,26.48334355782101,3.090917692210869,0.3849629818021105,54.81799907176666,3.084330795699632
185.354182,0.536696494560178,0.3107848738729055,26.47676519480264,3.1263033903351403,0.3867598562963139,55.445740990042665,3.0843463053760147
185.3840125,0.5366174702485608,0.310731525996882,26.47017142518692,3.050056997776928,0.38320272438504,54.09365917890717,3.085364807421738
185.4137595,0.5365373964417215,0.3106783233207862,26.463596618651444,3.142967095254879,0.3879568168515795,55.74161798171764,3.0864188007203417
185.443621,0.5364587512609619,0.3106249116983058,26.456997011254423,3.001829585490358,0.3815589058623271,53.23865883252564,3.0893525630266723
185.473528,0.53637799867009,0.3105714144966312,26.45038785461687,3.1235075976364883,0.3885507927233619,55.396838212456274,3.0881915148898105
185.5032945,0.5362990439611398,0.3105181644340696,26.443810248583063,3.05597172135073,0.3843527620749928,54.19922478462162,3.0961107548341364
185.5331105,0.5362189739014606,0.3104648216181737,26.43722220396233,3.115681120805594,0.3865176819045258,55.2583714097313,3.0950503769430573
185.562743,0.5361396879037034,0.310411802914251,26.430675198387743,3.130015862128446,0.3867057771261792,55.51277574262021,3.0992281920766453
185.592593,0.5360605316860755,0.3103583908270475,26.424080633827025,3.045255020651897,0.38266109748529,54.00965576319355,3.0958385463463376
185.622271,0.5359800150400612,0.3103052822830238,26.41752455917553,3.198974450703915,0.3904577354414775,56.73614733472104,3.095291100516686
185.652132,0.5359017125033351,0.3102518419944666,26.41092855083088,2.983063572710791,0.3794363984315557,52.90697317610605,3.0914073277305336
185.681967,0.535820147741016,0.3101984439456699,26.40433877684009,3.205665429064928,0.3905501490446618,56.85516667498861,3.09238242761978
185.711581,0.535741917947881,0.3101454371811074,26.39779829963063,3.05546836065972,0.3835924899052489,54.19146110817082,3.091978235656122
185.7412975,0.5356614685180496,0.3100922426708787,26.3912356669582,3.15995380554095,0.3891819752495251,56.04477557623504,3.087308057352852
185.7708725,0.5355826229684891,0.3100392971842258,26.3847047612812,3.093474379162894,0.3862212162497833,54.865867299811086,3.087802992941593
185.800631,0.5355028644492074,0.3099860188779838,26.378133813522044,3.081515574449694,0.3854755001315902,54.65393367434954,3.0885673445175295
185.830561,0.5354229673752354,0.3099324291432264,26.371525480064378,3.0232046498928127,0.3837714798946671,53.61989337893814,3.0838456493126025
185.8603345,0.5353422200935362,0.3098791152457328,26.364952179442263,3.129782539041939,0.3888129387977492,55.51034115418487,3.081047064339646
185.8899175,0.5352630952808533,0.3098261381283868,26.358421407832555,3.0845896453153263,0.3864986499076669,54.70895948578376,3.0858357862919643
185.919619,0.5351833029146671,0.3097729444356039,26.351864946485303,3.084205360241214,0.3870766939157303,54.70231135808663,3.086085420777968
185.949519,0.5351034738782969,0.309719390806166,26.345265141427397,3.015951911335999,0.3826229159065228,53.491914522693634,3.0852178045454686
185.979159,0.5350225458142748,0.3096662984535523,26.338723193669832,3.1828640368962944,0.391450433544992,56.45249551969447,3.091760398526616
186.0087415,0.534944047301754,0.3096133047069276,26.3321943993523,3.036629164365221,0.3847210105430146,53.8589822464656,3.089213507789228
186.03842,0.5348633598271798,0.3095601345641839,26.325644880376817,3.142802320352903,0.3893276718592611,55.74228649812933,3.090871674261064
186.0681215,0.5347842774798195,0.3095069187654571,26.319090747446225,3.0214585041664423,0.3843351467892327,53.59023723381642,3.091632636464478
186.098261,0.5347033971226404,0.309452913640483,26.312440432731837,2.977347431585487,0.3829594415026138,52.80802347064213,3.0900629737059586
186.128168,0.5346218861261117,0.3093993205545722,26.305841885689805,3.092523659985266,0.3878392371961672,54.8510276309051,3.09247800643795
186.1577435,0.5345421892388729,0.3093463170277785,26.299316934222837,3.0827127004298385,0.3885702610368693,54.6771809751038,3.089499227309963
186.1874145,0.5344623962883426,0.3092931378532259,26.29277136620461,3.0500777017199154,0.3862092196272214,54.09850920590145,3.0959560627191953
186.2171425,0.5343821158501587,0.3092398519840562,26.28621367653603,3.0632158229675763,0.3872760504819929,54.33170374989172,3.09379999858046
