T(K),Fc,X,m(mol/kg),cp(J/gK),cp_err(%),cpm(J/molK)
175.1078705,0.911854033698006,0.3289743709898976,28.786098586488063,2.65361659424502,0.5466346853504329,47.01320701631769
175.1364045,0.9118404378959092,0.3289237706153442,28.77950073373293,2.8071431140479515,0.547159059550128,49.7333283846248
175.1648315,0.9118269115387052,0.3288733615628963,28.772928817001514,2.911614309936373,0.5474442868287915,51.584363786728055
175.19314050000003,0.9118134099817398,0.3288231633031805,28.766385362679348,3.091706623867287,0.542438341221184,54.77517416769089
175.2215945,0.9117999884183284,0.3287727094630627,28.759809579087765,2.8680580067163484,0.542491457160987,50.81298230728505
175.250201,0.9117863414578994,0.3287219867508681,28.753199749079904,3.040753184889261,0.5426234160399156,53.87275620707923
175.27853249999998,0.9117727673101224,0.3286717531480303,28.746654640812014,3.3609580231232727,0.543662341758232,59.54596962127033
175.306616,0.9117593745718922,0.3286219607239322,28.740167981800397,3.512689484666097,0.5374265611985727,62.23436906036693
175.334719,0.9117460291075,0.3285721351634015,28.73367796902166,3.5194557534360364,0.5383041259957023,62.35442632111536
175.36334449999998,0.911732610446689,0.3285213846914397,28.727068472332267,3.059319930466808,0.5322550444643472,54.20232868692911
175.391638,0.9117187597639173,0.32847122425864117,28.720536801162048,4.226753279689373,0.5382683839402751,74.8860983863852
175.419951,0.911705650026506,0.3284210306641747,28.71400178849785,3.3271628937705957,0.5281389408852729,58.948074938086705
175.44848100000002,0.9116917730669442,0.3283704537788175,28.707417860828766,4.263108364523414,0.528893180160746,75.53064649644743
175.4767095,0.9116784490922584,0.3283204127566114,28.700904665835864,4.068026287347282,0.5269125003042145,72.07453246013549
175.504965,0.9116648519648354,0.32827032522492394,28.69438638906745,4.636539605122682,0.5233881473367068,82.14730338292969
175.53342650000002,0.9116514948212324,0.3282198738769257,28.687821748690535,4.2428859443609275,0.5171484882940832,75.17301321795482
175.561995,0.9116376934960158,0.32816923420728367,28.68123359570851,4.987022091320272,0.5147913702276383,88.35744758809231
175.5901665,0.9116242266894652,0.3281192995544292,28.67473813691892,5.334681860817046,0.5109907587971848,94.51737363819468
175.6185555,0.9116107967140896,0.32806898067351853,28.668193674651505,5.27609633372134,0.5056587530232376,93.47965421395953
175.647303,0.9115971146239328,0.32801802766789234,28.66156773698782,5.495376314253058,0.49950803084906303,97.36505072755577
175.67552799999999,0.911583334524842,0.32796800202295573,28.65506337095301,6.839364968360787,0.5002944019023358,121.17769561261416
175.70356600000002,0.9115701440500004,0.32791830903903274,28.648603216367185,6.653564611133649,0.4943399374086911,117.88608175619987
175.7322485,0.9115565350126136,0.3278674750255437,28.641995714800643,6.8600864401553014,0.4821503880575853,121.54553672425787
175.7606455,0.9115427208032678,0.32781714822892827,28.635455126726438,8.233410041656272,0.48135941290179457,145.87821244455597
175.788607,0.9115293771098972,0.32776759442538844,28.629015955515595,8.818696068898886,0.47720827234479635,156.24866107118314
175.8169765,0.911515971808782,0.32771731873318055,28.62248395000968,8.98665977111416,0.4642867070163603,159.22508463924152
175.84548,0.9115022301361017,0.3276668067453408,28.615922227891467,10.198395609263498,0.46140707819491333,180.69507200093298
175.87345349999998,0.911488688931315,0.3276172351176526,28.60948362108154,11.748060803948919,0.4591888090886894,208.1526195780161
175.902022,0.9114754470067754,0.32756661023365835,28.602909191936828,11.11910232214868,0.4383601313040482,197.0092827676664
175.9306855,0.9114613282015412,0.3275158181443956,28.596314043346297,13.885464427336117,0.4444295798861928,246.02466291009887
175.9585785,0.9114479876469188,0.3274663924709835,28.589897274699442,15.189924814621397,0.4361120020555719,269.1380474730429
175.9867575,0.9114345992639452,0.32741646107872696,28.583415807891836,16.24343289826114,0.42511871746145,287.80513770293635
176.0147575,0.9114209770008354,0.32736684790831305,28.57697660174514,19.032109692938636,0.4242080589108456,337.216563603109
176.04296349999998,0.9114077526898082,0.327316870764248,28.57049111641249,19.557722274676838,0.4075356571719231,346.5305219465605
176.071322,0.9113939251032384,0.32726662444487853,28.56397167187075,23.04537011107616,0.4100397435696512,408.3270618813206
176.099444,0.911380546913192,0.3272167981698499,28.557507689576397,24.960662209648177,0.3984433418011576,442.26424222418433
176.1279855,0.9113669384114516,0.32716622963856107,28.550948392956084,27.24734626434251,0.3896920605669974,482.782146924281
176.1562905,0.9113531498064285,0.3271160811154762,28.54444454967431,31.687422714517982,0.3927252812167293,561.4552720928768
176.18422149999998,0.9113397605753044,0.3270665961644866,28.538027716340707,34.9831128284686,0.3880248234940016,619.8519002272667
176.2124465,0.911326323358176,0.32701659127968574,28.531544420525048,37.77600577590197,0.3786143480553543,669.3399927322322
176.240912,0.9113126439888536,0.3269661612552075,28.525006979677777,41.705432534418954,0.37525662957326406,738.9662966971835
176.268977,0.9112989678627488,0.32691644167512407,28.518562595526507,47.52732481523374,0.38087903927753947,842.1251088002593
176.29670199999998,0.9112856656610298,0.3268673253072486,28.512197331240216,51.6403201739495,0.3770692077375381,915.0048648763415
176.3247395,0.9112723087245994,0.3268176561950761,28.50576137831117,54.800237194023914,0.3694076932194264,970.9976058028743
176.353163,0.911258698329774,0.3267673041482643,28.499237902384547,58.59504442448903,0.36435259333957415,1038.2402698888511
176.381541,0.9112449622515538,0.32671703356592546,28.492725954137075,63.99728167755628,0.36697102058426845,1133.9653083984476
176.409617,0.9112313877337086,0.32666729879680007,28.486284370900545,69.27785565428304,0.3687837169536917,1227.53511092521
176.4373535,0.9112179344703,0.3266181662260221,28.479921717933617,75.14190202748422,0.37282090558040054,1331.4439875914313
176.465468,0.9112046791388464,0.32656836485681673,28.473473403235865,75.78602815307039,0.3577076639501441,1342.8611545882222
176.4933535,0.9111908540023615,0.3265189699058015,28.467078653852788,85.76155213607595,0.37703160735969676,1519.6229142753482
176.521445,0.9111778117029592,0.3264692108197474,28.460637711309907,82.73720338869063,0.35168052626177865,1466.0381927806086
176.549662,0.9111637800254684,0.3264192301879556,28.454169049305506,93.29039964292392,0.37271529423180316,1653.0372974249162
176.5775665,0.911150609142562,0.32636980381475866,28.447773065307484,92.59670729044898,0.3578956929498286,1640.7502554123494
176.605849,0.9111368707276064,0.32631970862589527,28.441291491355507,97.71138082170872,0.36221989260063925,1731.383770123811
176.633784,0.9111233275136634,0.3262702296441477,28.434890591622356,102.08612129395644,0.36550943501502453,1808.9065612206878
176.66184850000002,0.9111099164497926,0.32622052197478957,28.428461054107046,102.60463194558702,0.358480966992752,1818.099479139304
176.6897795,0.9110962403644296,0.32617105142637415,28.42206312929632,108.38405520342809,0.36837562682808267,1920.5132625737808
176.7175165,0.9110829504119832,0.3261219251279637,28.415710655217346,108.23334004051605,0.36300729985397084,1917.848095484654
176.74563849999998,0.9110694537934558,0.32607211757693877,28.409271034509384,107.70946979009213,0.35867107774244356,1908.5708223322642
176.773703,0.9110557841465168,0.32602241249151753,28.402845610436824,109.97945315273203,0.36429380997349003,1948.7996495215082
176.801882,0.9110423351978432,0.32597250522859705,28.396395004140192,106.28190894994434,0.35580730431082536,1883.2858052040287
176.8300915,0.911028546841827,0.32592254454807545,28.389938450232005,107.38152495440468,0.36373253523443677,1902.7761761415416
176.8580915,0.9110150604796284,0.3258729554829622,28.38353086754925,103.7465716508282,0.3613660788392201,1838.3708879710243
176.88604199999997,0.9110014666672828,0.3258234546439337,28.377135624983985,101.33065523874917,0.3655592649796167,1795.5664020323716
176.91392,0.9109880203008957,0.32577408274566916,28.370757976268735,96.12076774289879,0.3639207730180269,1703.2527032869664
176.9420535,0.910974488704022,0.3257242588907093,28.364322892571888,89.94374425049241,0.3604044418347412,1593.8008952316973
176.9705835,0.9109607870742964,0.3256737333738232,28.357798155668593,83.90261962109682,0.35559878379775023,1486.756649753584
176.99898000000002,0.9109468634386024,0.3256234447958395,28.351304987277,83.25049607072029,0.3647330003492446,1475.205280923798
177.0268845,0.9109332829289212,0.32557402800749075,28.344925326046187,82.8806979023932,0.3681814701186485,1468.6566135341784
177.05490350000002,0.9109198277889866,0.3255244089174686,28.33852048844361,81.55954937574583,0.362078240238049,1445.2498270629235
177.0829875,0.9109061282877076,0.3254746751750522,28.332101797064695,84.43289100816258,0.3662602529004823,1496.170246279691
177.1108155,0.9108926021565328,0.32542539521706165,28.32574260513763,87.38070128017405,0.36780729752065205,1548.4105222186654
177.138918,0.9108791428457546,0.3253756295786683,28.319321682797277,87.77419121591687,0.35879696146581735,1555.3877375516042
177.167315,0.9108653424024744,0.3253253428401098,28.3128344886172,91.40600243248693,0.35969235662084253,1619.7493318122854
177.19529599999998,0.9108515892395032,0.3252757931701451,28.306443325105533,97.75923897852485,0.36814591308164935,1732.3360634678977
177.22324600000002,0.910838184369805,0.3252262987736228,28.300060228094008,98.69400702550543,0.3596687385221175,1748.9055494857719
177.2514635,0.910824453140504,0.32517633105057125,28.29361703782824,102.85004790878673,0.3608645481038648,1822.557855713634
177.279673,0.9108107804400788,0.32512637784782294,28.287176673605966,105.96281454412271,0.3591166491478597,1877.7231538503186
177.3078635,0.9107970487369578,0.32507645862824236,28.28074164313438,110.11823413205684,0.3606582870216408,1951.3652403234623
177.3357985,0.910783386285356,0.3250269921616803,28.274365915470888,115.13215275956331,0.3649324025453693,2040.2208909758913
177.3636455,0.9107698947540274,0.3249776818234038,28.268011241188677,117.37207161957522,0.3624069554590186,2079.9197067664704
177.39144349999998,0.9107563097403536,0.324928458536856,28.261668711245296,121.47902271638695,0.36569479303354285,2152.704020281803
177.41951999999998,0.9107428578468412,0.3248787423702636,28.25526361142108,119.68226687254176,0.3552051447510205,2120.870170560315
177.4476685,0.9107289937102964,0.3248288989713471,28.248843066733578,124.72628827404826,0.36369410893032683,2210.2608135378327
177.4756645,0.9107154636291114,0.32477932585288305,28.242458278251576,123.64736568519604,0.3587313695865212,2191.147608415042
177.5038935,0.9107017396209476,0.3247293403875978,28.23602133057711,122.99651186320361,0.357900945580425,2179.620148636281
177.5321985,0.9106879744393672,0.3246792205659498,28.229568037712724,120.82274824717565,0.35709676661556633,2141.1050895702233
177.56012950000002,0.9106741680444927,0.3246297631869932,28.223200978083554,120.99625907039702,0.3676394631559704,2144.185996902486
177.5882135,0.9106607590018349,0.32458003507526045,28.216800004894598,109.77087018757628,0.3541131882199672,1945.2654107894248
177.61645,0.91064679512178,0.32453003710395656,28.210365245706175,106.22615131854351,0.36469747597066055,1882.4543637197166
177.6444,0.9106332292224316,0.3244805465880058,28.203996734301057,98.0058615829012,0.3623142089857014,1736.7859607458822
177.67227,0.9106195363219758,0.3244311978641287,28.197647397982667,92.91870098183871,0.3681246790607235,1646.6398228063165
177.70039200000002,0.9106060402881656,0.3243814030544531,28.191241607249406,83.39680112202402,0.3577737672173992,1477.9036582418507
177.72903300000002,0.9105920931306354,0.3243306893794672,28.184718580713046,77.40880630023831,0.3575496348091654,1371.7923349425957
177.7574525,0.9105780820852908,0.32428036800432286,28.17824698138195,74.01687524642762,0.36516089668430673,1311.6863775192198
177.78534150000002,0.910564342609053,0.3242309860452435,28.171897133004737,70.67647481495632,0.372283444662524,1252.4932034519843
177.813578,0.9105508412404372,0.3241809888462008,28.165469118513368,62.7635457207658,0.35964244204731644,1112.2674307593165
177.8420205,0.9105367537944916,0.3241306269419646,28.158995176241294,60.770545378007775,0.369984381496108,1076.9514990567093
177.8705695,0.9105230427234442,0.3240800764981443,28.1524979676612,54.4730623432452,0.36019427019062417,965.352816433044
177.8987985,0.9105088423852772,0.3240300926835925,28.14607454296499,54.97874889611551,0.38053772303702466,974.3172270049682
177.92661550000003,0.9104954358132996,0.3239808383830133,28.139745797360046,49.70932397571469,0.37285983075942064,880.9365292793125
177.954993,0.9104816298839944,0.3239305916197086,28.13329047920651,45.991961114823255,0.3710251088356794,815.0606916108198
177.9836755,0.910467666496678,0.3238798047799969,28.126766751180728,42.600959773880845,0.36976969749145744,754.9682285972481
178.0119115,0.9104535533348672,0.3238298084967033,28.12034552981884,42.39937071768716,0.38486935043721054,751.3978616661959
178.039988,0.9104400185025296,0.3237800945774576,28.11396151507051,38.20738809300945,0.3773048151413512,677.109860775448
178.068404,0.9104260528665336,0.32372977944748516,28.107501251522123,36.2753791034615,0.38175093806246246,642.8727368360437
178.096644,0.9104121769409212,0.3236797758672756,28.101081942048896,34.420804618452145,0.38638416627520517,610.0077025524563
178.12453299999999,0.910398375121072,0.32363039369087265,28.09474333806179,33.35424297762285,0.3945386520421038,591.1077119003835
178.15265499999998,0.9103848347866702,0.32358059883366735,28.08835270027388,29.81899587960186,0.3859675872599543,528.4571753736915
178.1812995,0.910370795903548,0.3235298786659269,28.08184427598157,28.04905784458815,0.38903917564120793,497.0914945350987
178.209719,0.9103567344272544,0.32347955675152795,28.075387920091767,27.16430116088622,0.3969864907402573,481.4130412033003
178.2379325,0.9103429075192748,0.3234295994357371,28.068979292604904,25.531315196580866,0.3990358861330896,452.47412862331066
178.2665235,0.9103290394762404,0.32337897350505085,28.062485859246774,23.1767814815036,0.3957588008477263,410.7475284577076
178.2949395,0.9103148331301152,0.32332865725103255,28.0560331086749,23.216713872485702,0.40853350085974743,411.4564187645343
178.32311099999998,0.9103011282381313,0.32327877372667974,28.0496368002447,21.230736330098868,0.407361525178854,376.2611672822468
178.35138899999998,0.9102871532368711,0.3232287013997008,28.043217230901718,20.47235487390265,0.413740116679957,362.82181927866975
178.379923,0.9102733350549986,0.32317817552840933,28.036740477291257,18.378304557697604,0.4099039659826237,325.71090920373064
178.4083885,0.9102590994881526,0.32312777069543575,28.0302802026617,18.52395229541824,0.42162422572241276,328.29311643470817
178.436541,0.9102453399109178,0.323077919835409,28.023891875789587,17.169497942481073,0.42274469727307573,304.2895003083259
178.4649225,0.9102314033296716,0.3230276631914162,28.01745250056298,16.175804379779443,0.4242172971511784,286.6794189543396
178.493281,0.910217409672796,0.322977446975202,28.011019260201124,15.530236687589918,0.42940663921276834,275.23899370436595
178.5213875,0.910203486898016,0.3229276766812605,28.004644088895944,15.145121660427876,0.4368468813788616,268.41445437938665
178.549265,0.9101897325888187,0.3228783115751865,27.998321744644272,14.535479521297011,0.4404562680261329,257.61060205062876
178.577513,0.910176026690171,0.32282829005321206,27.991916271397297,13.003360732791789,0.43867858933029974,230.45770473754655
178.6060395,0.9101618985971472,0.32277777500196936,27.985448559885345,12.672472567219405,0.44398220182311676,224.59404970599928
178.6344475,0.9101479094136408,0.32272746941538794,27.97900862606035,12.042345832051208,0.44541491152065066,213.42694161229397
178.6631415,0.9101338891365476,0.32267665697614445,27.972504777953922,11.030788584615683,0.44536733452117544,195.499647735998
178.691454,0.9101196088416148,0.32262651970576245,27.966088305943185,11.716880397917832,0.4588882135570919,207.6599142586301
178.71956849999998,0.9101059560115394,0.32257673265034276,27.959717593633798,10.412856115773277,0.4543855428702166,184.54903878019374
178.7482475,0.9100918620711916,0.32252594550005187,27.953219874734287,9.764228408410057,0.457551705795036,173.05379268125503
178.776789,0.910077643104245,0.3224754013895637,27.946754217554098,9.814506085441465,0.4639757473588183,173.94538304790697
178.8050445,0.9100636758607332,0.3224253632924643,27.940354240335164,9.489592904966365,0.46697703795263584,168.18733621230604
178.8336165,0.9100497303335068,0.3223747642163735,27.93388347387594,8.571202935920441,0.46629908167280015,151.9108363944102
178.8619405,0.910035441288405,0.3223246038358057,27.927469762915706,9.244383346262595,0.4754536207699304,163.8423541836635
178.890215,0.910021731954349,0.32227453061013955,27.92106814285773,8.023557684474335,0.47171848081360884,142.20552369504333
178.91850849999997,0.9100074826845944,0.322224423214078,27.914663101135805,8.591098585256274,0.4823049404026388,152.26477464656125
178.9468215,0.9099937457421106,0.32217428074622434,27.908254524280796,7.43146681561328,0.4774120997464015,131.71236249371242
178.9752605,0.9099794679998728,0.32212391457542183,27.901818310979028,7.825165413743135,0.4830488030934878,138.69052259639395
179.003489,0.909965597447518,0.3220739206391415,27.895430610712577,7.244667732554086,0.48536709101655356,128.40235275772116
179.0319005,0.9099515189318362,0.3220236020172066,27.889002376776606,7.046804785556249,0.4876935514920324,124.89585059631025
179.060198,0.9099374581379288,0.3219734846990581,27.882600807922973,6.977122979433882,0.4897197893123945,123.6611845448066
179.088366,0.9099234834643192,0.3219235961295594,27.876229397341014,6.841003980092909,0.49362300876542864,121.24898633228062
179.1165565,0.909909541953668,0.3218736670891466,27.869853756712075,6.563336758199995,0.494655073805054,116.32798663482872
179.144957,0.909895535953731,0.32182336546845475,27.863431489119016,6.164961617875939,0.49377117125195774,109.26753857377255
179.173293,0.909881377109782,0.32177317742912903,27.857024672453715,6.311869812837636,0.49949630083015717,111.87165736116624
179.2015215,0.9098674259888332,0.3217231791230095,27.85064301917231,5.972427226007221,0.5013996643309928,105.85567794305305
179.2300245,0.9098533646410844,0.3216726939310271,27.844200175597408,5.550883512781602,0.49918602154885455,98.38449685144899
179.2586345,0.9098391318876448,0.32162201850414734,27.83773401891927,5.468525317154951,0.5026644787666402,96.92505389510426
179.286768,0.9098249550284256,0.3215721863650627,27.831376407306823,5.922234252469597,0.5102405395355545,104.96696821344565
179.3147795,0.9098111863637076,0.3215225696053353,27.82504720176009,5.3551821311517855,0.5089359998854606,94.91668455789909
179.3431495,0.909797121567654,0.3214723170917872,27.81863784178349,5.149689135463938,0.5098627693901325,91.27473600755215
179.37155,0.9097829875443132,0.32142200978921365,27.81222244469756,5.089848193953099,0.509505083563477,90.21435767442881
179.400149,0.9097688831881596,0.3213713500860865,27.8057630691979,4.668734912076701,0.5114732006320264,82.75063131025698
179.4287365,0.909754542378148,0.32132070994944223,27.799307152282136,4.922491780727026,0.51539177130987,87.24858003693464
179.456946,0.9097404401229274,0.32127073860207095,27.792937441101916,5.029177097699761,0.5144224927461116,89.13977801040751
179.4852355,0.9097264661442594,0.32122062472397056,27.786550503804218,4.657006423505727,0.5144522214138192,82.54346785158523
179.51354049999998,0.9097122749790222,0.321170482555926,27.780160904812877,4.87911978270478,0.5178091196672795,86.4805831203931
179.5417845,0.9096982763711828,0.32112044760474695,27.773785909278015,4.647877032296279,0.5168198881969749,82.38212901751957
