T(K),Fc,X,m(mol/kg),cp(J/gK),cp_err(%),cpm(J/molK),cp_SMA_1K
183.0002655,0.3587494381050304,0.3149828131161564,26.998848410659647,3.176663194061341,0.3555543981891086,56.32525804462228,
183.0303255,0.3586408875378172,0.314929334146008,26.99215717929737,3.149771490891026,0.3538150429610739,55.84861470386335,
183.060141,0.3585316346741543,0.3148762872589945,26.985521041687782,3.2500850144732163,0.3608493762892851,57.62745047813125,
183.089892,0.3584247713644279,0.3148233522332041,26.97889992215976,3.168618133706572,0.3553385342455686,56.18312776275253,
183.119578,0.3583159007708837,0.3147705299612567,26.972293925613325,3.268289596300486,0.362028850149042,57.950590180586246,
183.149466,0.3582094255146897,0.3147173453161578,26.96564363928133,3.103290778194229,0.3513689022868035,55.02513714943441,
183.179621,0.3580990033172368,0.3146636825467883,26.958934613720807,3.1782525851527934,0.3569898457884843,56.35447584829564,
183.2093335,0.3579905050304544,0.3146108042642666,26.95232469390332,3.226083178052511,0.3601771564287527,57.20274763188856,
183.2392105,0.3578832100009348,0.3145576302377715,26.94567883374994,3.122584658473296,0.3536051284235437,55.36775081639813,
183.2691255,0.3577734309110487,0.3145043855609593,26.939025176590693,3.2091705331742038,0.3594711199682205,56.90321289368499,
183.298876,0.3576657748251702,0.3144514306597026,26.932408756006676,3.167427947911213,0.3570222483619188,56.16322815927518,
183.3286765,0.3575571054394542,0.3143983837325235,26.925781862046943,3.189071317818819,0.358467410384384,56.54717029106873,
183.3582675,0.3574490006682466,0.3143457067156463,26.91920219388099,3.2232916079349354,0.3615109586961548,57.15412249353075,
183.3882585,0.3573417705679417,0.3142923145500479,26.912534231046187,3.0650658716895527,0.3507096133660075,54.348694000469536,
183.4181845,0.3572306677840995,0.3142390349948014,26.90588136675821,3.2402369690269905,0.3623330612874158,57.45494406129396,
183.4477445,0.3571238258305272,0.3141864039943218,26.89931050053119,3.1740571601213032,0.3578732014173423,56.28163354083332,
183.477545,0.3570153022766207,0.3141333416908905,26.892686807946795,3.17081501074604,0.3575247119996843,56.22431643079527,
183.5072235,0.3569066226823787,0.3140804935120572,26.886090862848903,3.2153210724257133,0.3607197048376356,57.013663469142585,3.1889533379498487
183.537356,0.3567989028911786,0.3140268337123636,26.879394659756755,3.047002791804607,0.3486256712861335,54.02923223493638,3.1897537873910005
183.5675075,0.3566868243316636,0.3139731368458575,26.872694879715187,3.218994009940951,0.3599072818400652,57.07914464317282,3.190081427444245
183.5966975,0.3565788792100024,0.3139211492213166,26.866209361685826,3.34402891423427,0.3682070705481794,59.296438984587375,3.1902519141304584
183.626002,0.3564737323192979,0.3138689545930141,26.85969900837412,3.188599051181936,0.3575940071844992,56.54052121129883,3.1921650002356414
183.65589,0.3563648664206021,0.3138157174924348,26.853059645442237,3.164673381431716,0.3561213450940377,56.11644126388472,3.1895264656143207
183.6857665,0.3562553723779133,0.3137624976375263,26.846423462910835,3.1914403978298798,0.3575377986831253,56.59125137969465,3.191726789622462
183.7156585,0.356146503401949,0.3137092469157099,26.839784461598345,3.158833890322186,0.3558863252419479,56.01323822660471,3.1944430242847055
183.7454325,0.3560368082667025,0.313656203149638,26.83317228655751,3.2262422004331404,0.3603208356683172,57.20871422378758,3.1923543561191905
183.7749315,0.3559287154312137,0.3136036460906722,26.826621789968183,3.2421637851063903,0.3612918358061489,57.49121474995988,3.1951100874760106
183.8050635,0.3558209457093063,0.3135499579205104,26.819931351983804,3.042842548391264,0.3476997849971792,53.95694579185544,3.1917464427332627
183.835215,0.3557081313635726,0.3134962316278382,26.813237210870287,3.2372158653975496,0.3607753242172513,57.40383176163096,3.192672753448858
183.8646265,0.3556001313773677,0.3134438206533234,26.806707964142195,3.2608086041651787,0.3626082574408675,57.82236391126504,3.1965465295730007
183.8943965,0.3554926491802024,0.31339076752975,26.800099735051237,3.131910362647177,0.3536513623178988,55.5368426453386,3.1935933864882573
183.924376,0.3553819349095556,0.3133373376790418,26.793445613347068,3.202754064871524,0.3581625072649332,56.79325892536905,3.1975974332111536
183.9539665,0.3552728296135764,0.313284597770081,26.786878432053413,3.2542507034334047,0.3612644281676205,57.70660523190027,3.1973606949135807
183.983519,0.3551648802581436,0.3132319222630511,26.78032027689584,3.214556798949435,0.3588192879003813,57.002898715358846,3.196237578769508
184.013224,0.355055966630607,0.3131789715684637,26.773728874450136,3.2038784750605065,0.3583143364551611,56.813716124147,3.195145231998172
184.043093,0.354946810960166,0.3131257251171864,26.767101680437428,3.160911252701347,0.355776760354918,56.05195920944258,3.194456506082127
184.0727825,0.3548366047688387,0.3130727952418828,26.760514906562605,3.2558815618044687,0.3619212679416094,57.73622936828772,3.1995435178127924
184.1022205,0.3547286800289746,0.3130203103613329,26.75398451157109,3.233663061282778,0.3608457302864937,57.342404289391006,3.20053181077313
184.131895,0.3546202343181365,0.3129674004095134,26.74740223729505,3.178579419175588,0.3571922571543137,56.365780340794124,3.1946191200452447
184.1617335,0.3545104835964234,0.3129141945695428,26.74078417526117,3.178101794471049,0.3575266247236041,56.35748339699059,3.1946643223603504
184.1912595,0.3544007435242595,0.312861542511811,26.734236004930526,3.2706045636690777,0.3636141634227544,57.99801690699502,3.1931362901322426
184.220858,0.3542932042756853,0.3128087577138655,26.72767233334745,3.155068460424973,0.35615324126273,55.949371716357966,3.1937430410120626
184.250628,0.3541828419899662,0.3127556635645139,26.72107121175434,3.2162795246051843,0.3601829046449009,57.03501253478061,3.194380142234505
184.2806,0.3540739523758721,0.3127022055855371,26.714425886118946,3.0948066119207858,0.3522666621765287,54.88107493807093,3.195085621859802
184.3106215,0.3539620115121368,0.3126486557144319,26.707770173766757,3.1989225122414635,0.3591274343525852,56.72756647946029,3.192460763825995
184.339884,0.3538526677450991,0.3125964561979825,26.70128329505397,3.3207797060396618,0.3677075522231892,58.88867811476992,3.197571448631438
184.36938300000003,0.3537462340561548,0.3125438313048235,26.694744551602422,3.122884743053668,0.3545887014309707,55.37949769078337,3.196107523888909
184.3992445,0.3536350574029742,0.3124905561337873,26.688126029519808,3.201203460268006,0.3601166533730315,56.768532438408506,3.195311795357423
184.428717,0.3535258614527394,0.3124379714069255,26.68159428903833,3.232187866909512,0.3625075736460899,57.31816799419728,3.1931323650117207
184.4583875,0.3534174668834433,0.3123850298200467,26.675019230884537,3.1358712112228395,0.3560228571389185,55.61030131709811,3.1957642074857193
184.4883785,0.3533067196362091,0.3123315126838758,26.66837372158603,3.133675220520629,0.3559959758131863,55.57152984675254,3.19015398434965
184.5181905,0.3531958676437217,0.3122783112842444,26.661768444129624,3.191904391280168,0.3597627461996289,56.60431965902752,3.189309358515348
184.5477395,0.353086352784262,0.3122255755903491,26.655221995371047,3.2199611906472216,0.3611597659123852,57.10204442404014,3.189294737962449
184.577124,0.3529773555216131,0.312173129873914,26.64871253910118,3.2525959705924383,0.3628877615683369,57.68095634075311,3.191997674548301
184.6067945,0.3528689689933905,0.3121201700406984,26.64214027893436,3.142997429486176,0.35544976449229,55.73752545785093,3.1894719288788287
184.6366865,0.3527577659202275,0.3120668111087593,26.63551951441617,3.190135929895534,0.3587291367643129,56.573647693655246,3.190049107072585
184.6666815,0.3526476500203045,0.3120132645304058,26.62887649918357,3.1127202856760463,0.3532169953146725,55.20093437695843,3.1891047793625686
184.696589,0.3525355919138784,0.3119598703641678,26.62225342184617,3.212069927743755,0.3601518137664092,56.962974668494816,3.1915194057154386
184.7262485,0.352426033370875,0.3119069152002087,26.615685814109582,3.1804953318852336,0.3583962121852441,56.403201636647225,3.1917269266320325
184.7557665,0.352315721768497,0.3118542089477862,26.609150080574828,3.250228507693248,0.3632321055750613,57.64003133932281,3.192640670537691
184.7853605,0.3522071230660051,0.3118013632439049,26.60259805970601,3.1529186119569466,0.3570065939780237,55.91449355832447,3.191791664771352
184.8150505,0.3520961571267516,0.3117483423265158,26.59602532633957,3.2166058317763264,0.3614500087076909,57.04410980443336,3.1969737912876663
184.844626,0.3519867564431267,0.3116955220982493,26.589478478251635,3.187442424151566,0.3590175968872499,56.5270905128033,3.1984466935370843
184.874163,0.3518765495797314,0.3116427668412184,26.58294068595404,3.233753834094633,0.3617094406417986,57.34856570737427,3.1923385570125378
184.904158,0.3517673450891379,0.3115891896729806,26.57630206236273,3.0578097308933105,0.3504440646500582,54.22847643970189,3.1958663573564894
184.93397,0.3516536426722759,0.3115359354805347,26.569704481886752,3.29223670898746,0.3661428954697619,58.386081646114576,3.196575388175762
184.963755,0.351545708068735,0.3114827256211325,26.563113413085183,3.0635031168070634,0.350496541512707,54.32977858936583,3.1976915865982534
184.9938835,0.3514321120973517,0.3114288981310761,26.556446875262434,3.185839520583152,0.3584046433209389,56.4995320633508,3.1969599194962726
185.0235545,0.3513215308879731,0.3113758840813806,26.5498821007736,3.2033813762619445,0.3596984678954103,56.81080306686203,3.202374482627593
185.053027,0.3512112463581338,0.3113232208233316,26.54336176580784,3.252811096620331,0.3627591538274086,57.687596209062015,3.2042235212904533
185.0826405,0.3511020522953879,0.3112703017136003,26.5368107577986,3.17000620904241,0.3569320388148858,56.21924861387533,3.200919270668408
185.1122995,0.3509906259856293,0.3112172973576033,26.530250205970507,3.253287119870496,0.3616815565358352,57.69639044551924,3.2010747408219684
185.1420845,0.3508810021578348,0.3111640638419009,26.52366230636548,3.146472277035021,0.3540184900936588,55.802221915979096,3.2055294618186485
185.171881,0.3507685433923941,0.3111108057643797,26.51707238597616,3.260199090468634,0.3614015768201706,57.819327601405625,3.202182879496351
185.2012655,0.350658742190463,0.3110582801514148,26.510574095465607,3.2776602748332526,0.3624394106029567,58.12917599607688,3.207355392928234
185.230898,0.3505492651657049,0.3110053072522409,26.504021471711848,3.1861357532173877,0.3562203327466465,56.50616466499661,3.2081018401293258
185.260817,0.350437521126102,0.3109518181180117,26.4974060131745,3.1874133285496544,0.3563985538563639,56.52899669109769,3.208282920068287
185.2904495,0.350325812248193,0.3108988371415139,26.49085441526445,3.2709989134754567,0.3622357615636714,58.01156992196395,3.208048570412866
185.3198795,0.3502161156729043,0.3108462142206993,26.48434809148255,3.249001188721683,0.3608319866137358,57.621612254356734,3.207157126723592
185.3498365,0.3501058278467703,0.3107926448758237,26.477725771881317,3.113103064205077,0.351733460737716,55.21160531852101,3.2089471673581214
185.379805,0.3499920977297971,0.3107390508010133,26.47110142521587,3.242829954748021,0.3603391005335232,57.51251941396295,3.2082575990034354
185.4093805,0.3498816306125329,0.3106861554462075,26.464564451922435,3.2253105081232776,0.3593198007124627,57.20198132594165,3.209372450614391
185.4388605,0.349770746802763,0.3106334268228792,26.458049082256835,3.270138613274215,0.3623423543389603,57.99719924096249,3.2134319969735996
185.4687295,0.3496609026810722,0.3105799982663151,26.451448242464043,3.110994529755488,0.3520830833799108,55.17488593478256,3.2096435469492546
185.498465,0.3495470113506219,0.3105268043360804,26.44487740591338,3.317770366985512,0.3653547360381149,58.84232865701023,3.2135211792957112
185.527735,0.3494380751517105,0.3104744390582115,26.43840991978013,3.254771705817444,0.3609955545400711,57.7251898206071,3.211218306440333
185.557692,0.3493275790871392,0.3104208404989014,26.431791131802257,3.107616669497685,0.3512635080646885,55.11548344888278,3.2101934104002523
185.58763,0.349213397806337,0.3103672716643443,26.42517704245423,3.257881955813482,0.3613020236723128,57.78070858731744,3.21161060068208
185.616938,0.3491029503834749,0.3103148259551261,26.418702619610947,3.294457943373302,0.3643614935888895,58.42958465949094,3.2103826130038304
185.6468375,0.3489934029512985,0.310261317529486,26.412098019145457,3.0763521309374107,0.3496000646710606,54.56148917123343,3.2106576296348015
185.676737,0.3488784197372684,0.3102078047992058,26.40549391213898,3.2885857423600826,0.3641756805817903,58.32579656543073,3.208596986262144
185.706072,0.3487687790661063,0.310155298185893,26.39901496780056,3.237449132580864,0.3609977481976076,57.41902005795505,3.2090610047196755
185.7357165,0.3486579424026953,0.3101022333594433,26.392468145892355,3.1866520498099047,0.3579880979606234,56.51826171061938,3.2057280583975434
185.76533,0.3485458819090616,0.3100492197531264,26.38592864880681,3.2422606194089503,0.3617874867172948,57.50470745860067,3.2044657674093555
185.795153,0.3484351847536884,0.3099958267734637,26.379343369778343,3.1226095265216336,0.3535878356186617,55.38274702742833,3.206999836700188
185.8248545,0.3483214522268785,0.3099426469846139,26.3727853978345,3.277467213350304,0.3642716905155801,58.12948822003474,3.2050734351599597
185.854392,0.3482115757898742,0.3098897565287146,26.36626410804085,3.163997100092262,0.357250738863364,56.11714186919654,3.202397072562449
185.8839175,0.3480989823326845,0.3098368832545959,26.35974593575456,3.2716587888671107,0.3644537499821482,58.0268229851888,3.203915093441973
185.9133095,0.3479891033983368,0.3097842447570419,26.35325769851785,3.195834307106405,0.3599323634932502,56.68215604538004,3.204205181063048
185.9430375,0.3478774214110895,0.3097310001428302,26.346695757874,3.163429408159736,0.3576288900677818,56.10758636018807,3.2030685359484066
185.9727655,0.3477649148630631,0.3096777511182028,26.340134286056227,3.195342616586593,0.3597172897090672,56.67378299511861,3.2032759429214157
186.002684,0.3476531375355925,0.309624156399865,26.33353123909192,3.107541843500283,0.3542442951631237,55.11668606409624,3.2036178725082793
186.0326865,0.3475390963914896,0.3095704066898371,26.326910126214127,3.1685349108992167,0.3580965003343339,56.198659113330045,3.198089455109766
186.062052,0.3474265883041991,0.3095177937739047,26.32043004671428,3.3009955662024577,0.3670656382734028,58.54822246497631,3.198580961222098
186.09155500000003,0.3473172627688571,0.3094649301101205,26.313920078333567,3.128254627981922,0.3556323840347685,55.48456579304099,3.2023065301382343
186.12118,0.347203619881998,0.3094118433980936,26.30738364534774,3.2626376853235213,0.3643952184587299,57.8682397925083,3.1985595676034375
186.1509725,0.3470932785284217,0.3093584520229195,26.30081071347991,3.076410402364669,0.3523132453289801,54.565360796341146,3.19446278491716
186.1807005,0.3469782709538991,0.3093051717146964,26.294252467916547,3.275975718024703,0.3657753974391515,58.10516878850203,3.1981670284052686
186.2101045,0.3468683229128599,0.3092524676380093,26.28776614577194,3.1643400998807474,0.3586568967617642,56.125285927134655,3.1963689806111386
186.239928,0.3467556703435557,0.3091990070974069,26.281187736309672,3.143217859619005,0.3572942254332087,55.75081655430493,3.1961675341208724
186.269408,0.3466424502392149,0.3091461577867919,26.27468554044945,3.2735716844379685,0.3658476837920346,58.063060932373176,3.1960609530299946
186.298716,0.3465323041301848,0.3090936123580719,26.26822171819169,3.2055012611077047,0.360559389602834,56.85587376309117,3.1963824093319544
186.328444,0.3464202916000564,0.3090403093601158,26.261665708799853,3.1580048604063014,0.3572559547433132,56.01360361750352,3.1973701941885775
186.3583515,0.3463068654472396,0.3089866798607498,26.255070562062865,3.1647157741089047,0.356674552805078,56.13280866765794,3.1944706301188255
186.387976,0.3461933938186324,0.3089335532138381,26.24853826342744,3.252692933864569,0.3627611772586492,57.69344293241248,3.197396644144371
186.4175245,0.3460820179422798,0.3088805582674626,26.24202315885836,3.1866645742254587,0.3587221357493352,56.522461780506646,3.195094670430638
186.446974,0.3459690258523657,0.3088277362974749,26.235530313891285,3.277190450356539,0.364715665924058,58.12831295067847,3.1934663283782454
186.476614,0.3458583065237252,0.3087745680067751,26.22899590150856,3.12262013570886,0.3544388279547241,55.38683185457287,3.1932165597469906
186.5067235,0.3457437690875746,0.3087205527531397,26.222358426218378,3.1298041754360457,0.3554470360126656,55.514430022986055,3.196859755552147
186.5363485,0.3456293828713773,0.3086674019628727,26.2158281899152,3.2714829136367247,0.3647326882940526,58.0276129689158,3.199544972001034
186.565638,0.3455184316454208,0.3086148484913574,26.209372328829676,3.23428601264633,0.3621882046748049,57.36801019993771,3.1984413076547566
186.595385,0.345406500557063,0.3085614694328487,26.202816054226016,3.130485229630395,0.3550305439799017,55.52701898370868,3.1962797924347055
186.6253685,0.3452919698964091,0.3085076611762632,26.196208087885942,3.155167332039844,0.3573628746021621,55.96499154380738,3.199559200268995
186.655085,0.3451781393359216,0.3084543272921939,26.18965939200108,3.2022964095331163,0.3608778087984653,56.801121221598216,3.1955709484097867
186.684538,0.3450655433973535,0.3084014616112517,26.183169182038597,3.227452117359665,0.3625654136212015,57.24749798328055,3.1991869037460767
186.713877,0.3449536231642103,0.308348795868774,26.176704504630862,3.230599951911824,0.3632440010820366,57.30350710177672,3.199375859863991
186.7433645,0.344841799673898,0.3082958588339062,26.170207518350296,3.18302829272004,0.3599746798093337,56.459866066801496,3.2026605623566016
186.772814,0.3447286495459549,0.3082429852766098,26.163719315282957,3.2531901336755857,0.3638936767134997,57.70455735450326,3.20491838236018
186.8023895,0.3446170193065686,0.3081898807152232,26.15720376358321,3.156194211646832,0.3570941818967098,55.9842307312527,3.204979887748301
186.832232,0.3445028085899244,0.3081362918646829,26.150629806988103,3.178882034978732,0.3585284292270201,56.3868389480192,3.2035075582908963
186.8617425,0.3443890405372662,0.3080832943633724,26.14412939505634,3.26348157696081,0.3638677044838299,57.887637810647774,3.2047205928268836
186.8912035,0.3442772678856255,0.3080303809516935,26.137640290499792,3.193391682600198,0.3592094285543373,56.64455588701343,3.2067375792344195
186.921046,0.344163779460847,0.3079767774353111,26.13106756589824,3.140470677325033,0.3560570640611756,55.70601221833416,3.20439960206492
186.9510025,0.3440489900863529,0.3079229641629902,26.12447014570567,3.1549372746970894,0.3571870829357725,55.96279578278385,3.2067571979804264
186.980387,0.343934528803174,0.3078701735501792,26.117999098759142,3.319211273961903,0.368052159228072,58.87689401752407,3.2053877352659557
187.0096495,0.3438240189893584,0.307817597307861,26.111555310289887,3.198839202762443,0.3594384710465959,56.7418797959143,3.2074625300948023
187.039557,0.3437103930366634,0.3077638572138792,26.104969890751928,3.131010323125768,0.3545481053946849,55.53888460975752,3.212313570032126
187.069407,0.3435948427736325,0.307710215411613,26.0983975356831,3.2275040487207347,0.3606542012815002,57.25069876061156,3.206610375226084
187.098925,0.3434815570857997,0.3076571652726425,26.091898674628894,3.23975449434776,0.3613970300858313,57.46817745734167,3.2076930710732974
187.1287865,0.3433684519203369,0.3076034927609989,26.08532458380741,3.1270371221104423,0.353786696383616,55.46891906889248,3.2083924988140433
187.1587815,0.3432524301101629,0.3075495751901116,26.078721502962843,3.1993528837985195,0.358220771841624,56.75186780061997,3.210638677540327
187.188273,0.3431381993185861,0.3074965576792322,26.072229651675304,3.282400226033811,0.3637467612237852,58.22518470651686,3.2113832733892247
