T(K),Fc,X,m(mol/kg),cp(J/gK),cp_err(%),cpm(J/molK),cp_SMA_1K
181.5049275,0.7355702862784124,0.3176397845362456,27.332606321553776,3.3210329631806648,0.4522887216821846,58.87605503299744,
181.533194,0.7355287090674275,0.3175896140723032,27.32628003816324,3.247504609307342,0.4507820596194202,57.57269352790026,
181.5613575,0.735486734328301,0.317539624570417,27.319977498438647,3.378437901626812,0.4547558687135206,59.89408907128787,
181.589514,0.7354454324135522,0.317489645630016,27.313677213225805,3.2582544692764324,0.4495299036828599,57.76360295329185,
181.6180405,0.7354034488142416,0.3174390080103163,27.307294836658627,3.185575044463705,0.4487669868853527,56.47527865858856,
181.646109,0.7353610225644912,0.3173891814957274,27.30101561624395,3.5261249620036548,0.4571821645113182,62.512877243158776,
181.674216,0.7353203651268384,0.3173392847401825,27.29472846251031,3.17253375942739,0.4487889206606579,56.244400281010144,
181.7027805,0.7352777949585398,0.3172885738522332,27.28833966706416,3.2744218903401183,0.4506755338467903,58.0508980311468,
181.73099,0.7352357531676843,0.31723849124802,27.28203095721751,3.363341581716207,0.4543366255328865,59.62749130275617,
181.7590965,0.7351942047451769,0.3171885895651363,27.2757459577726,3.315956445004961,0.4522925690101975,58.78758608119188,
181.787375,0.7351524385406796,0.3171383805338117,27.26942317560076,3.2504207013368625,0.4502088928445743,57.62588951698996,
181.8158325,0.7351103504963556,0.3170878516745106,27.26306105638273,3.2035568544517745,0.4494933084156216,56.795217586008576,
181.8443395,0.7350680233510586,0.3170372328876911,27.256688558251305,3.2167343318133543,0.4508938655812862,57.02900481864463,
181.872515,0.7350257581451721,0.3169872007165737,27.250390838507563,3.3923349705709773,0.4544372286922777,60.14237586700604,
181.900614,0.7349843849305234,0.3169373023790879,27.244110883736187,3.2776939063955184,0.450975596394321,58.1100827371288,
181.9288545,0.7349423168709307,0.3168871507290146,27.237799972754846,3.34439001094938,0.4530420703585058,59.292706254142026,
181.957255,0.7349004937498775,0.3168367128659449,27.231453980242097,3.228421986413588,0.4481756707020484,57.23687498551156,
181.9857695,0.7348579199625709,0.3167860704393352,27.225083192634145,3.3177310815400043,0.4485039744583586,58.820412637102194,3.3265802175392807
182.0139525,0.7348157277143731,0.3167360146777941,27.21878713518637,3.440323341967229,0.4535027539726376,60.99404002348938,3.330270717735246
182.0421585,0.7347741092931104,0.3166859159750547,27.21248660017223,3.3228296472925742,0.4487442165010098,58.91114571112097,3.3309403628883443
182.0705435,0.7347318183947571,0.3166354972118494,27.20614674625261,3.3496296715663063,0.4494772178878281,59.38646154420786,3.3302764638785014
182.0988675,0.7346896372440466,0.3165851846601681,27.19982118027704,3.3602720932543635,0.4495531477410762,59.57531657447794,3.330072255184427
182.127287,0.7346474974603749,0.3165347003076152,27.19347495064198,3.2957009235943047,0.446521135106882,58.43068408855926,3.334609723948376
182.155592,0.7346050013665903,0.3164844171860398,27.1871549489874,3.4277011608985,0.4506804921176766,60.77114056798212,3.328934180785911
182.1838895,0.7345631722864006,0.3164341452127014,27.180837278025898,3.3118209315553773,0.4481213358828498,58.71682187129113,3.3309328759508148
182.2123205,0.7345206678554372,0.3163836338652329,27.17449046078364,3.3682102698080194,0.4493071781107826,59.71674865802187,3.336312404919761
182.240744,0.7344784103895219,0.3163331336196424,27.16814597604137,3.3296060960054867,0.4488239553016164,59.03248702878388,3.333689968021208
182.2690035,0.7344358974368417,0.3162829225368068,27.1618387488009,3.4641251464696152,0.4510246477825317,61.41762978779519,3.3335645992361953
182.296946,0.7343940987007455,0.3162332725077582,27.15560290875798,3.4986971714896864,0.4525521188694766,62.03075622427322,3.33826510955866
182.3252435,0.7343525014203768,0.3161829894615291,27.14928848727805,3.2546911894972275,0.4475358898110426,57.7047772155027,3.3429231551241423
182.3537965,0.7343096124546546,0.3161322501173674,27.14291770626842,3.343157805935069,0.4473489109840026,59.27343925530374,3.3475615959030263
182.3820745,0.7342672215809455,0.3160819971744882,27.13660892905186,3.393248157590166,0.4505352613705499,60.16170421131459,3.349812820456867
182.4102995,0.7342251231071084,0.3160318361415912,27.13031261475933,3.355883973721269,0.4502615990199276,59.49941568410682,3.3502948748682164
182.4385015,0.7341828598810353,0.3159817136985995,27.12402206673815,3.386076859671803,0.4518805510639616,60.034905307008266,3.349043597049208
182.466856,0.7341407996217213,0.3159313179057967,27.117698141711283,3.253865703739073,0.4489365573264323,57.69097833824444,3.354219531943602
182.4950775,0.7340980493874778,0.3158811561796562,27.111404513807333,3.450200470039467,0.4532550566393173,61.172166929765936,3.3588707177932107
182.5232605,0.7340563564809189,0.3158310605605108,27.105120101177825,3.2709421896657838,0.4487696518946716,57.99407920073488,3.3582092354601825
182.551615,0.7340136903929446,0.3157806577405499,27.098798079431457,3.355201436282298,0.4514424678501938,59.48817550429826,3.359033193121583
182.580008,0.7339714534171042,0.3157301840997781,27.092468107951333,3.2511071649838303,0.4480990173223579,57.64273766022236,3.363017133592562
182.6084125,0.7339286406829355,0.3156796876152707,27.08613620600328,3.3443864512019035,0.4502243298539076,59.29676939990763,3.3705308173440076
182.6366715,0.7338863381987482,0.3156294473990235,27.079837365583693,3.3274809513173955,0.4502867669973855,58.99720167281668,3.36964126818395
182.6651215,0.7338439302817348,0.3155788651853303,27.07349658161779,3.242488090199007,0.4478303483508228,57.49042119934367,3.3665816328495692
182.693343,0.7338010238327268,0.3155286868083817,27.06720734698132,3.4627054042532595,0.4537047609204326,61.39512692591455,3.3694236498255434
182.7215145,0.7337592703216689,0.315478594913791,27.060929871505135,3.2715562902668585,0.4497574672275962,58.00614550489514,3.3752566717282737
182.7499605,0.7337164825223773,0.3154280124635186,27.054591852207253,3.3115685375294888,0.4499776961477322,58.71575157207664,3.380149012642247
182.778174,0.7336738740657389,0.3153778409817141,27.04830625273967,3.414938562623147,0.4519350235503835,60.548728420626816,3.3719672232518914
182.8063225,0.7336317530841784,0.31532778263181,27.04203574477882,3.366588449243661,0.4500890221617062,59.691626666390114,3.369212922625258
182.83457,0.7335893086644419,0.3152775457435847,27.03574379415115,3.379079759074287,0.4493895160582972,59.9132785154853,3.3727741155093796
182.8626655,0.7335468591324705,0.315227576702497,27.02948630602782,3.471127829955392,0.4517352666254196,61.54552781868637,3.367995895496585
182.8909365,0.7335048405777097,0.3151772930191094,27.023190337914425,3.294565810792758,0.4471641806224848,58.41512881828109,3.3695139293348166
182.9195315,0.7334618318723201,0.3151264304859086,27.016822833143195,3.3005952872840663,0.4461453784642785,58.522207506033695,3.3699265352354053
182.947943,0.733418807087226,0.3150758917709749,27.01049680402612,3.4095797077174,0.4500913789361062,60.454764955707375,3.369341770291823
182.976057,0.733376318708092,0.3150258797103336,27.00423761620221,3.4805225862763005,0.451512451076094,61.71282074370229,3.372884097349875
183.004183,0.7333341579911318,0.3149758437588323,26.997976352945138,3.417171460311243,0.4476433912836991,60.58972255781191,3.36924860096403
183.0325645,0.7332916021412139,0.3149253506816021,26.991658814310327,3.351668165441598,0.4460666583887449,59.42845933377635,3.3694537119621173
183.0608315,0.7332486401662919,0.3148750587067407,26.98536736262367,3.489067588050568,0.4509752520822241,61.864869068056784,3.368466724335414
183.08861,0.7332063978597391,0.3148256333156378,26.97918521913761,3.623251024554961,0.4544819067628445,64.24426670551217,3.3713246450338272
183.116755,0.7331648775225522,0.3147755532377122,26.972922096854457,3.26456670299227,0.4451383492220925,57.8845621795407,3.3766990741574254
183.1453845,0.7331214983920764,0.3147246083764721,26.96655176217803,3.320613924195184,0.4474775277990702,58.87851741346145,3.3702956312461603
183.1737045,0.7330784847060972,0.3146742115794834,26.960250891362172,3.4112915257144745,0.4509970258231167,60.48651707282148,3.3747460345348803
183.201544,0.733036007496875,0.3146246672472359,26.95405750339007,3.5723660364035807,0.4556364911437047,63.342752898932105,3.367459291285479
183.229193,0.7329944132610936,0.3145754593645095,26.947907060210618,3.5008380279945635,0.4529809761801292,62.07464316643131,3.3713171681095457
183.257521,0.7329524805353055,0.3145250403700031,26.941606157308257,3.1777625178071545,0.4459995854421993,56.34623650499388,3.3729361281383246
183.2859975,0.732908803149478,0.314474354331452,26.9352728159069,3.402296649557517,0.4517505114744219,60.3277213291002,3.369105613220244
183.314074,0.7328663898865978,0.3144243775603779,26.929029016077774,3.379332940441494,0.4519511094462859,59.92071357732579,3.369789522406924
183.342524,0.732823889770262,0.3143737332002902,26.922702740225077,3.175920105487261,0.4472484171587871,56.314058936686536,3.364592594383081
183.3708135,0.7327803145081543,0.3143233717896504,26.91641273590717,3.4463793419282607,0.4553225148734523,61.1099039576016,3.35857863987622
183.3987145,0.7327382682771775,0.3142736992841591,26.91020967901915,3.370325180241869,0.4519430302242407,59.76151119222961,3.3548671213774637
183.426745,0.7326958370159505,0.3142237935062256,26.903978396228855,3.365610086646432,0.4518223682917076,59.67807630936008,3.3612484482388805
183.454764,0.7326533672286824,0.3141739054631799,26.897750234218563,3.37784715077088,0.4524946917834351,59.89523276681632,3.3573632134464697
183.482859,0.7326109391951966,0.3141238793378017,26.89150574341705,3.322958096534899,0.4516888395800998,58.92212215032283,3.355504365667597
183.5111295,0.7325682072809497,0.3140735379090741,26.88522281448119,3.2781210745988427,0.4517329185982124,58.127248402302094,3.3528635640695654
183.5394005,0.7325252151259095,0.3140231927605904,26.87894034356261,3.320656869347693,0.4509400423529717,58.88165881945167,3.34973672448846
183.5675265,0.7324824494810828,0.3139731030076966,26.872690658044668,3.3511343894282835,0.452728961651822,59.4222556224563,3.342989063320032
183.595263,0.7324398650644329,0.3139237041487226,26.866528068955297,3.532491470527837,0.4584460807474593,62.6382544766439,3.3351226942149355
183.623427,0.7323982501332224,0.3138735410831902,26.860271051908303,3.10336044942313,0.4471474373034017,55.02904822023723,3.3375111877645094
183.6517895,0.7323543354050756,0.313823021576081,26.8539704992536,3.3982522053041917,0.4563328131037705,60.258269031671176,3.3392139115866573
183.679934,0.7323120858463995,0.3137728874899258,26.84771893156165,3.207669390524217,0.4482645450098364,56.87899302930601,3.3367000380404157
183.708052,0.7322688005404476,0.3137227977278849,26.84147380312271,3.406581979109192,0.4567215882925884,60.40632257433087,3.321695184595517
183.735884,0.7322265997022522,0.3136732146012757,26.835292739136374,3.368232138536762,0.454882699292317,59.72646472054559,3.3180021516258753
183.763964,0.7321841519124453,0.3136231867736866,26.829057143520934,3.28087054049032,0.4522269751262945,58.17751135484343,3.3204008952043336
183.7920325,0.7321411646960411,0.3135731765251701,26.822824647446108,3.3905252707774496,0.4539777117214845,60.12211955345701,3.3215341928495725
183.8202805,0.73209871988447,0.3135228435073065,26.81655284333428,3.197187278239788,0.4476529052511013,56.69393912073008,3.3164794927796515
183.848788,0.7320551534490856,0.3134720450912185,26.81022398016949,3.260639422215261,0.4507220941615486,57.81926985246668,3.3194478310191307
183.877379,0.7320118856119576,0.3134210948283859,26.803877139471883,3.1646626633362818,0.4486355069438693,56.11752728157168,3.3168564209885005
183.905516,0.7319680311668024,0.3133709506099931,26.797631626880676,3.5239417274336597,0.4563501861758147,62.48864048686963,3.31717544719285
183.9334435,0.7319261144411972,0.3133211767938914,26.791433150331716,3.2735964899830314,0.4510045270158036,58.04953563089578,3.3096393736790657
183.961539,0.7318828657988707,0.3132711005736597,26.785197921257264,3.415462914015741,0.4534779341685121,60.56537781309343,3.3125343684647373
183.9895235,0.7318404047375654,0.3132212192047207,26.77898785802541,3.324743404380152,0.4522759206474745,58.95684545994915,3.3139110242322283
184.0178015,0.7317974621138025,0.3131708116375608,26.772713201221023,3.2422287801028964,0.4503409081130593,57.49380120593705,3.313111930957894
184.046194,0.7317540724981916,0.3131201968728241,26.76641367941315,3.252899447155606,0.4515985633911191,57.68319026667631,3.3146257622712803
184.0743885,0.731710747140738,0.3130699319983571,26.76015862373075,3.3479281058765684,0.4527133124714498,59.36849152871351,3.313301720752101
184.1024115,0.7316679293052893,0.3130199698172685,26.753942142869423,3.3481639772273657,0.4538643433797468,59.37284514131655,3.305744665970145
184.130377,0.7316250951832988,0.3129701071032884,26.747738939528077,3.3802092579703613,0.4536780898007895,59.94127492170256,3.3154124606586204
184.1583885,0.7315824206361402,0.3129201593038038,26.74152605373205,3.323305951596011,0.4530026148163095,58.932377793657984,3.3206926751719985
184.187018,0.7315394131880009,0.3128691063519452,26.73517663414177,3.0471961658321325,0.444993931653601,54.03626585805138,3.3248726086586022
184.215563,0.7314948143111741,0.3128182008628631,26.72884649374697,3.3715818740570938,0.4544834033240928,59.78880879063881,3.319512417200902
184.243708,0.7314520320983817,0.3127680055488447,26.72260558247348,3.2617185430532016,0.450625250593143,57.84075179642489,3.3229563811420384
184.2717385,0.7314086239426385,0.3127180113068282,26.716390577128028,3.4419620671408757,0.4564603067819144,61.03722454803964,3.3178556146361995
184.299891,0.7313661597873702,0.3126677963089352,26.7101490387577,3.2024184379942557,0.4482949435859102,56.78949827163002,3.326245108540754
184.328345,0.7313223443671599,0.312617040299726,26.70384118139272,3.2798119438690296,0.4514212948377947,58.16211187040942,3.3291593310377086
184.356543,0.7312789228162343,0.3125667377218311,26.69759059460795,3.355679990856205,0.4526385169987763,59.507680339291305,3.3303576515467306
184.3845925,0.7312358587715301,0.3125166968611004,26.691373436312148,3.3814910973941124,0.4524146200113855,59.96557241587836,3.3311563457296316
184.4131495,0.7311928595122464,0.3124657473253387,26.68504431255352,3.10184751366397,0.4457171750367891,55.00668267321514,3.3295322903766245
184.4415725,0.7311482040152432,0.3124150335587281,26.678745408302888,3.479171968269396,0.4537835729583392,61.6981546668768,3.3272638143594833
184.46953,0.7311055827059051,0.3123651471310582,26.672550170188423,3.3711410483970874,0.449914099629677,59.78255216098395,3.325033722887703
184.497923,0.7310623228710281,0.3123144803197833,26.666258938732465,3.250152809997138,0.4481106714939205,57.63716034117146,3.324021287937255
184.526335,0.7310183300038476,0.3122637762689774,26.65996401128857,3.373640965316206,0.4501667042362882,59.82723419514125,3.329778731040873
184.554663,0.7309749779616509,0.3122132187902423,26.653688204934728,3.304792936257019,0.4479776287586615,58.60647263872326,3.333776932910151
184.583201,0.7309312091324756,0.3121622831405602,26.647366388370752,3.2679945531593586,0.4463880442973204,57.95406827509623,3.335532328656957
184.611521,0.7308871769170804,0.3121117332175182,26.64109337140991,3.441733263519775,0.4516992049679204,61.0352992492358,3.3329883481032483
184.6393035,0.7308440448837744,0.3120621394348253,26.634939903040685,3.5830597132724344,0.4562440744243569,63.54174771921742,3.329401521962748
184.667239,0.730801633883479,0.3120122692546209,26.62875303456174,3.3539670625553573,0.4479758733870424,59.47920447324879,3.3363698479376485
184.6957955,0.7307579973022634,0.3119612870568761,26.62242913685792,3.218975278089663,0.4455452098649135,57.08542976391745,3.3447118725395324
184.7240775,0.7307136392529422,0.3119107915107561,26.61616652778143,3.4887708764765355,0.4536443295899804,61.87017515415063,3.3513310873640187
184.752539,0.7306708147122603,0.3118599720343351,26.60986467185786,3.102343712785973,0.4443279523857569,55.01740232391977,3.3545009260068435
184.780638,0.7306258681591697,0.3118097964163028,26.6036435705353,3.684157557436852,0.4600890089320691,65.33556024503473,3.347234935063016
184.8083555,0.7305841286045766,0.3117602987057955,26.59750740941135,3.2991850656332025,0.4502736833709307,58.50855073402584,3.350593692444689
184.836737,0.7305403248882972,0.3117096117920372,26.59122473905523,3.3025806400310165,0.448967697184736,58.56893972351906,3.355815784438707
184.8653245,0.730496502368868,0.3116585534508418,26.58489696552784,3.192616959737824,0.4449444364363421,56.61897792820247,3.3605638786772523
184.8936255,0.7304520275961265,0.3116080033068245,26.57863309870432,3.467099790078416,0.4538013752236038,61.48693084974162,3.3578376879962972
184.921923,0.7304090558418102,0.3115574559166132,26.572370492912142,3.194199829383072,0.4483474996062663,56.647379053713664,3.361197354947299
184.9504495,0.7303645568623308,0.3115064959134142,26.56605769699117,3.337409712503452,0.4499502597926041,59.18730143216464,3.364149572007365
184.978804,0.7303208428169896,0.3114558396230624,26.55978345034587,3.289308181114454,0.4468611394845411,58.33441495223406,3.3583562366317365
185.0069715,0.7302768407509526,0.3114055138973423,26.553551061275773,3.443739288729535,0.4524824026054745,61.07335892165728,3.3613475248657996
185.0349675,0.7302336710705826,0.3113554910967985,26.54735708947805,3.392836512580338,0.4508556736219375,60.17079166925157,3.361851019675823
185.063055,0.7301901655624321,0.3113053012990722,26.5411433438924,3.409366957014772,0.4516781957842093,60.46412827643382,3.3610743241149894
185.09141,0.7301466785984337,0.3112546299273639,26.53487089574584,3.25912465784756,0.4477293883771822,57.79979367938895,3.35936195719954
185.1200625,0.7301023097538003,0.3112034232494315,26.52853312128404,3.2546703430528536,0.4462431657512104,57.72096776951783,3.3544827510397024
185.148192,0.730057865753671,0.3111531476618198,26.52231150320413,3.5671973607175227,0.4540678738593922,63.26375903226391,3.3477007286409615
185.176188,0.7300150836946333,0.3111031071269835,26.51611987471801,3.339167026898078,0.4485128388059451,59.21984287572888,3.3404139882966857
185.204142,0.7299710189286723,0.3110531381165604,26.509937993619484,3.6032543929141134,0.4550570680824315,63.90359379986932,3.3381264031958304
185.2320505,0.7299283336414747,0.3110032468906507,26.50376663015814,3.372662895552072,0.4480515116857856,59.81423339101431,3.332902440014048
185.260691,0.7298843755844199,0.3109520433891811,26.497433872232293,3.1876523841069164,0.443505434307562,56.53323562426344,3.3350880866003747
185.289408,0.7298393824783289,0.3109006993440114,26.491084677100805,3.319974946352802,0.4480585319438529,58.880159599680944,3.3221863881152904
185.317622,0.7297951512102723,0.3108502509318588,26.484847157245994,3.462585163659669,0.4522041139691657,61.40954764433821,3.3228929040000454
185.3454805,0.7297516858052138,0.3108004345678424,26.478688680867904,3.521863289205283,0.4533326569188349,62.46103473982274,3.316602467624542
185.373648,0.7297085252269238,0.3107500619938643,26.47246234902025,3.286074423560698,0.4466124546045174,58.27943550010636,3.3204539024892212
185.402331,0.7296640640650494,0.3106987637457532,26.46612253392347,3.2194358569490187,0.4450728827526288,57.09775090826889,3.3108826100182136
185.430449,0.7296192642964324,0.3106484722452505,26.4599080560693,3.582499565371693,0.4553004788546918,63.536988960173815,3.3138619620866954
185.4586125,0.7295765267735561,0.3105980956494958,26.453683972055565,3.1683743102501034,0.4465384440528566,56.19248353662452,3.310071545613604
185.48712,0.7295315496120353,0.3105470999348459,26.447384321611462,3.354847898189347,0.4524953515156269,59.49984777630342,3.302744227758013
