T(K),Fc,X,m(mol/kg),cp(J/gK),cp_err(%),cpm(J/molK)
175.134318,0.5683283226535352,0.32892747062739613,28.77998314969911,2.1353528588549304,0.9524686951931847,37.831410074094386
175.16379799999999,0.5682594452164392,0.32887519422122685,28.773167726594206,2.206398984075917,0.9454592774211605,39.090230953609925
175.1931405,0.5681910789001058,0.3288231633031805,28.766385362679348,2.2529397715392876,0.9264709801217108,39.91490247577884
175.2225785,0.5681228025637128,0.3287709646890429,28.759582195718774,2.2580194988960183,0.9274731540892472,40.00501946750447
175.2526845,0.568053952292828,0.32871758328338874,28.752625967040153,2.1421861780772744,0.9356526110656938,37.952933373250644
175.2825535,0.5679825234085208,0.3286646237721339,28.74572580936537,2.424254180135259,0.9125880645799618,42.95043976348431
175.31174700000003,0.5679147376953874,0.32861286354737007,28.738982960034388,2.4449085835834232,0.8906768377388874,43.3165025275973
175.34126500000002,0.5678464174204327,0.32856052955667686,28.732166422659944,2.4390754517026476,0.8940898542183563,43.21328722295697
175.3709245,0.5677770792934622,0.32850794626873325,28.725318484274855,2.5280383314348356,0.8781230291443086,44.78958523054691
175.4006755,0.5677080592910163,0.3284552023279358,28.71845070135125,2.549027542354313,0.8771441827299765,45.16159119786432
175.4302315,0.5676382537869086,0.3284028056275273,28.711629200656265,2.7469525778724924,0.858636973034919,48.66841263316716
175.459883,0.5675701039444655,0.3283502411441166,28.704786925809245,2.68485563763327,0.8513637717383804,47.5683705676979
175.4893135,0.5674998118908331,0.32829806992247795,28.697996900423927,3.011823197062648,0.8453463257575743,53.36151075820171
175.51864849999998,0.5674326547307276,0.328246069447338,28.6912301470135,2.916977720546285,0.8288379273739245,51.68125571696593
175.548186,0.5673627681972924,0.328193711460537,28.68441792945605,3.1712381564855523,0.8208591886242332,56.18625875773317
175.5776925,0.5672946256145613,0.3281414098567075,28.677614107839485,3.182659545183066,0.8048298038396918,56.388786746923124
175.6076835,0.5672248432516537,0.3280882509028243,28.670699840501616,3.2818400638636342,0.7926709719411187,58.14619635559634
175.63741950000002,0.5671543948275167,0.328035545357822,28.663845627067953,3.595765696595205,0.7882541976779323,63.708386056876854
175.6670215,0.5670857640318545,0.3279830787086223,28.65702354922464,3.6809642867529586,0.7726506743480918,65.21809906732148
175.6966235,0.56701590116219,0.32793061342514535,28.650202714083015,3.9947254942140624,0.7721538922521299,70.77742977752209
175.726111,0.5669472300134532,0.3278783524156515,28.643409494562253,4.166579957490172,0.756427560224669,73.82252162100623
175.7558195,0.5668778621739909,0.3278257010584295,28.636566603351877,4.394355653658919,0.7440013840749042,77.85843631815456
175.785147,0.5668081155259744,0.3277737262283297,28.629812689080424,4.906050768100804,0.7525048006162619,86.92482274004354
175.814528,0.5667404917254513,0.3277216578551198,28.623047666399728,4.997993252355047,0.7265278449493282,88.55411462767019
175.8442635,0.566670453485676,0.32766896252106326,28.616202252187634,5.454456762844815,0.7251703066179467,96.64199867477612
175.873999,0.5666011280025026,0.32761626845224956,28.60935807526178,5.797081205448911,0.7133399469940175,102.71292651843297
175.90374200000002,0.5665310480603409,0.32756356233959044,28.602513407046164,6.354720869257607,0.7110424400939136,112.59355156780373
175.9333095,0.5664616460612011,0.327511168439227,28.595710347597848,6.895553537591834,0.7085992355700833,122.17644562395023
175.9627055,0.5663923477801261,0.32745907962340826,28.588947952434037,7.557444857495825,0.7095376364124449,133.90433695022637
175.9920675,0.5663237095038742,0.327407052215757,28.58219457511686,8.084668887207533,0.7011660436675354,143.24622876661377
176.0217535,0.5662545298480416,0.32735445186415313,28.575367889287353,8.55920366851749,0.6888154173792017,151.65461728503982
176.05127149999998,0.5661843292667925,0.3273021503296354,28.568581043664494,9.512938051139058,0.7028004244976221,168.5536863787668
176.08086250000002,0.5661158974128336,0.32724972057186263,28.561778618446866,9.853922731054507,0.6814049626482653,174.59590450147252
176.1105865,0.5660453118957343,0.32719705627512313,28.55494683061538,10.869596690079234,0.6925880718258448,192.59262338590102
176.14018049999999,0.565976213858295,0.32714462339840483,28.548146125766536,11.48938950362736,0.6827608519085119,203.57501934319342
176.169596,0.5659061971078787,0.32709250783587906,28.541387627760205,12.683135573681785,0.6977068607630835,224.72711268458448
176.19884000000002,0.5658378971649736,0.3270406971488629,28.53466970451888,13.349547226420619,0.687834925212417,236.5356855115281
176.22816699999998,0.5657686454727467,0.32698874042507503,28.527933884442433,14.374850164783618,0.6919284771847659,254.7034118771718
176.257502,0.5656999142638957,0.3269367705239474,28.521197396348573,15.160423586961349,0.6854375451739255,268.6235433049846
176.287169,0.5656305835358241,0.3268842134460497,28.5143858546293,15.85957480468782,0.6753217038143301,281.01247086539263
176.3169995,0.5655602477397698,0.32683136770684806,28.507537974001274,16.89149196323323,0.6768138803413007,299.2977060995273
176.3461935,0.5654901048083785,0.32677965049199764,28.50083737121239,18.728248368881264,0.7033609645600296,331.84389546948177
176.37548299999997,0.5654227253387168,0.3267277650184545,28.494116002874378,18.801486543480582,0.6714920700346929,333.1425918994035
176.405295,0.5653520903353246,0.3266749548795038,28.48727591490167,20.106537041338214,0.6783295682370901,356.26780083374763
176.43503049999998,0.5652822068630349,0.3266222811694916,28.480454566235796,21.077950704103067,0.6740170973224735,373.48141741183815
176.46434649999998,0.5652118894284485,0.3265703514406592,28.473730609181242,23.073607488555332,0.6969268469008357,408.84379875972775
176.4934525,0.5651439423503043,0.32651879454360855,28.467055952853723,23.746869193037593,0.6828024462850438,420.7746482445262
176.5230465,0.5650745735173094,0.3264663740706501,28.460270543972342,24.607885498632534,0.6740163453587591,436.0324546695093
176.55274400000002,0.5650042820122951,0.3264137711018591,28.45346257411502,25.99140917918536,0.6776913692183271,460.54880754884397
176.5819305,0.5649343820771329,0.3263620740618011,28.44677288709802,28.100740307142313,0.697279283926373,497.9261005810808
176.6112505,0.5648664611585363,0.32631014133675096,28.44005373575927,28.215807999060946,0.6712495889856039,499.9665194756882
176.6410965,0.5647958882318584,0.32625727772370133,28.43321520827598,29.538189076723025,0.6725545712144231,523.3998829355819
176.670584,0.564725439973442,0.326205049848775,28.426459974739675,31.551051816781285,0.6873200171516445,559.068347756326
176.699721,0.5646565182973932,0.3261534434977004,28.41978615859149,32.914238777753354,0.6883183508797552,583.2250524770351
176.7289605,0.5645876845144079,0.3261016563073765,28.413089983546463,33.91758433809485,0.6824157505815964,601.0056654547739
176.758307,0.5645182361784228,0.3260496802977521,28.406370428552908,35.26981777828185,0.6831721577879867,624.968559837723
176.7878445,0.5644488541463585,0.3259973666880076,28.39960827447121,36.025971984617065,0.6734869797295178,638.3692677349477
176.8175415,0.5643784591966997,0.32594477126164384,28.392810750373435,37.441934810443975,0.6756686782392124,663.4617106058724
176.8467925,0.5643082791364459,0.32589296637337917,28.386116433713184,39.857440986252655,0.6940611597314766,706.2659851006439
176.875979,0.5642399530005113,0.3258412763347499,28.379437983534203,40.21611372058947,0.6784921351743171,712.6237192289553
176.905516,0.564170035582414,0.32578896616159814,28.372680453350444,41.46787446989977,0.6775537877319016,734.8069551619751
176.9349195,0.564100006482458,0.32573689300940334,28.36595458339582,43.2475718160433,0.6845406236658526,766.3453310202239
176.96425449999998,0.5640306786539503,0.3256849417405135,28.359245491276518,44.30448691631723,0.6805881796322222,785.0761783302717
176.993506,0.5639609311558856,0.3256331388975942,28.352556596460072,46.16303705627755,0.688357535602714,818.0121584323483
177.022475,0.5638919566663008,0.32558183687171094,28.34593338092983,47.85928711676678,0.6937906823699289,848.0723337522032
177.051638,0.5638235067547075,0.32553019179601045,28.339266894527665,48.053022050076684,0.679258565903734,851.5078759145265
177.0809425,0.5637535692667643,0.3254782966349258,28.3325691546984,49.837660064179396,0.6870113668050172,883.1346134284684
177.11011,0.563684405342941,0.32542664456536397,28.325903812254637,50.88585449249439,0.6855679946486272,901.7115415379121
177.13950599999998,0.5636150752471688,0.3253745883164968,28.319187345928828,51.27521320367555,0.6763794312450073,908.6138139360912
177.16886,0.5635447829904005,0.32532260689345727,28.31248156808882,53.23567732399922,0.6874841024935969,943.3567170965871
177.198073,0.5634756093249443,0.3252708755885979,28.305809082119197,53.89520385391559,0.6828183590366613,955.0466302111608
177.22741150000002,0.5634059436299323,0.3252189224576587,28.29910901390684,54.78781646351424,0.6815982986520324,970.8670252634352
177.2567655,0.5633361302150544,0.32516694227623943,28.292406489601724,55.78864896420014,0.6820815652136165,988.6052320116373
177.285864,0.5632663473201341,0.3251154149103158,28.285763372082506,57.70740586140347,0.6935904340779677,1022.6096871697558
177.314909,0.5631977060879405,0.3250639826372504,28.27913352584038,57.8136282971238,0.6845348353106202,1024.4950504611675
177.344229,0.5631281345686432,0.3250120637431882,28.272441976748485,58.32210873543341,0.6806294940775236,1033.5087481785758
177.373469,0.5630581413641805,0.3249602868368149,28.26576975279878,59.829969267873565,0.6882731290293674,1060.232261689693
177.4022435,0.5629889072969804,0.32490933451890813,28.259204788478154,61.94983926019732,0.7027822827880016,1097.8011849820687
177.431666,0.562921088179364,0.32485723505015063,28.25249304383244,58.66348123618511,0.6589577122100024,1039.5673895601801
177.46121449999998,0.5628487230742683,0.3248049127487522,28.245753635080185,62.884501527265826,0.6966253794834555,1114.3708648879185
177.490069,0.56278026045761,0.3247538195853284,28.239173554168882,62.99328520366686,0.6904021331636319,1116.3018997891154
177.5190645,0.5627111591352769,0.32470247698698823,28.23256235255238,63.58956403814273,0.6898725363694228,1126.8718730948847
177.5482585,0.5626419814141743,0.32465078312535384,28.225906935582046,63.35127216085057,0.681089331725286,1122.6524444718013
177.5776315,0.5625718897295126,0.32459877251637975,28.219211766586863,63.95388653480872,0.6814587634571406,1133.3348158718868
177.6069585,0.5625018140333262,0.3245468435506196,28.212528135920355,64.66334957989145,0.6832135812510816,1145.9107302615098
177.635828,0.5624318975782925,0.324495724844637,28.205949795177748,67.15574963126976,0.7033123567313962,1190.0825030596438
177.664606,0.5623639627341086,0.32444476830766616,28.1993933143898,66.06939191522964,0.6874909157948943,1170.8343478806555
177.69406700000002,0.5622944398108072,0.3243926025383658,28.192682268482244,64.87304660857005,0.6711301888775077,1149.6370328572048
177.723612,0.5622231982477187,0.32434028815753035,28.185953144643605,66.51580706037115,0.6835408326263093,1178.7524977890448
177.752825,0.56215322931501,0.3242885617443467,28.179300674694783,67.16990585295214,0.6863958417263982,1190.3475871994954
177.78171400000002,0.5620835298799186,0.32423740911339294,28.17272299971499,68.77901431527508,0.6989732582000611,1218.8669043268555
177.81055700000002,0.5620150665647994,0.32418633800290886,28.166156800740858,68.00715352074491,0.6885585602240751,1205.1919266381499
177.83978100000002,0.5619455434590035,0.3241345923262484,28.159504885058535,67.46878560520813,0.6808856528028954,1195.654781969302
177.86895950000002,0.5618752132600302,0.3240829272528237,28.15286434704906,68.69324369929552,0.6907109374445211,1217.3577640505707
177.89839,0.5618058637294817,0.32403081599601513,28.146167489138413,66.69334062437102,0.6694208959447537,1181.9197288322985
177.927477,0.5617342816086935,0.3239793129639361,28.13954980911128,70.81749027442775,0.7074633037639835,1255.0104204210304
177.95622450000002,0.5616665334020624,0.3239284110575499,28.13301035905561,68.71687763267904,0.6849471869416268,1217.7874457349787
177.9856665,0.5615965330071298,0.32387627940257524,28.126313941827615,67.8907013501044,0.6743907329821341,1203.1497230807086
178.0149675,0.5615254122084005,0.32382439736447793,28.1196506135496,70.00587330009492,0.6916040198429507,1240.6382222863888
178.04402,0.5614560428800357,0.32377295527322825,28.113044798136894,69.76233152890762,0.6858484782991595,1236.3258623730385
178.0733665,0.561386068573419,0.32372099252900755,28.10637314456423,69.29162656873407,0.6778457418985766,1227.987722833299
178.102435,0.5613152439274283,0.32366952193407966,28.099765690178018,71.91635544786126,0.6991588320519254,1274.5070077560613
178.13158650000003,0.5612465590653758,0.3236179042625291,28.09314036499649,69.57693232257996,0.6740579291123521,1233.0512465755157
178.16045200000002,0.5611752904463794,0.32356679287631446,28.086581019781242,74.04436372681836,0.713372127996443,1312.2275013046765
178.1891005,0.56110793533671,0.3235160655863322,28.080071947327312,71.0744337996564,0.6840440646781646,1259.5975541899272
178.21863,0.5610376640700417,0.3234637781657852,28.073363708317217,69.76744789752435,0.6712772439830599,1236.4385752325898
178.247973,0.5609660313013417,0.32341182079756087,28.066698840566293,72.03045027528607,0.6928600300790202,1276.5479717734204
178.27694200000002,0.5608966109007684,0.32336052547477234,28.060119901231843,71.37771003202589,0.6885220841200415,1264.9836298456707
178.30596400000002,0.5608267305495386,0.32330913609667566,28.053529898882097,71.23168890953232,0.6903321988552611,1262.399526885429
178.33531399999998,0.5607570105025856,0.323257165698906,28.046866406387448,68.9243658075043,0.6733658856834526,1221.5117854771652
178.3647595,0.5606855063400977,0.3232050259502025,28.040182228584232,69.53969078191737,0.6858318826415777,1232.42058459317
178.3940795,0.5606152809616639,0.3231531081633626,28.033527528946475,67.92783269881514,0.6791006196726823,1203.8579541099173
178.42335350000002,0.5605443343799487,0.3231012715510075,28.02688425249425,67.68992965080602,0.6880167842306243,1199.6452783476552
178.4526655,0.5604742847283414,0.3230493673544991,28.0202333339833,65.17183946217435,0.6773896847849936,1155.0214908062915
178.48165749999998,0.5604031086488596,0.3229980294899179,28.01365598750671,65.9331295631233,0.7034874731409039,1168.5170717439516
178.51065699999998,0.5603345558844256,0.32294667802223853,28.007077896074094,61.244032908743996,0.6770965022307904,1085.4165477763208
178.539965,0.5602632974744143,0.3228947799277199,28.00043079582869,59.78370004152652,0.6886560002757482,1059.5385116277303
178.569647,0.5601932118998714,0.3228422191910449,27.993699862952802,54.393075590028054,0.6605047964599802,964.0041174686876
178.5991615,0.5601201017743827,0.3227899546768214,27.987007900360233,54.18344340423589,0.6967780770176685,960.2917166542553
178.6283785,0.5600507781115484,0.3227382165824887,27.98038435800318,49.060087131167,0.6738192200364238,869.4932042178684
178.65783950000002,0.5599790561591872,0.3226860459924887,27.97370647191825,46.754463888409205,0.6852949176815881,828.6330757147789
178.68699900000001,0.559908508243562,0.3226344088824127,27.967097884715745,43.93648606435964,0.6879176305396844,778.6921492087544
178.7168145,0.5598381956366061,0.3225816096381773,27.96034160777486,39.12270978860746,0.6561969556987965,693.3790667607616
178.7469505,0.5597644302927036,0.32252824234496874,27.953513712532445,37.6548713318862,0.6733960855413433,667.3663459575085
178.77652949999998,0.5596925205665794,0.3224758609399209,27.946812999386278,35.71670598438871,0.6811986949475977,633.0176867765516
178.80633749999998,0.5596213993051695,0.32242307348770743,27.94006139213796,32.55537572314107,0.6635838457297912,576.9902565817963
178.83605799999998,0.559548333362837,0.32237044046222363,27.93333058362901,31.61966409519039,0.6855808844147527,560.4080141941114
178.8654275,0.5594775876171014,0.32231842849919634,27.926680224815556,29.388107720164037,0.6796245743810684,520.8588055880559
178.89496450000001,0.5594061719958782,0.32226611934839056,27.9199928964633,27.531943745387036,0.6782963729464826,487.96263842159607
178.924723,0.5593345677619518,0.3222134173493627,27.913256389309634,25.520112931733323,0.6702865402781759,452.3073122181044
178.9546535,0.5592620309568996,0.322160410137216,27.90648192566167,24.02343598554969,0.6711143707016166,425.78216625013937
178.984534,0.5591895445557836,0.32210749085501517,27.899719756508055,22.665141766113447,0.6729940161270523,401.70950599075417
179.0142085,0.5591172007228591,0.32205493577428024,27.89300517081832,21.62019727310599,0.6811658639256092,383.19041505858644
179.04408899999999,0.5590456640799155,0.32200201520429184,27.886244941035955,19.81321388941433,0.6648223940029948,351.1650111961126
179.0740915,0.5589722717322634,0.3219488778869795,27.87945808504815,19.041173524467148,0.6764197627786303,337.4825727516403
179.1040025,0.5589000940897142,0.32189590193289236,27.872692897668284,17.750265153512693,0.6699169123105333,314.60368967227316
179.1338755,0.5588270956077862,0.32184299257421645,27.865937269688427,17.023173486156253,0.6791389491524537,301.7177196106529
179.163367,0.5587550530658876,0.3217907581964869,27.85926885930393,16.314328093798544,0.6878087910021677,289.15505656480906
179.193087,0.558683858111858,0.32173811837623795,27.852549727896104,14.954388879700272,0.6707656084909992,265.05230617454805
179.22290249999998,0.5586106562231252,0.3216853086528785,27.84580995737407,14.501303393044626,0.6849059399579867,257.0225797696741
179.2528135,0.5585389483192561,0.3216323290018472,27.83904955448822,13.310080398835932,0.6679822494766844,235.90994250918408
179.28275150000002,0.5584652317303151,0.3215793007311398,27.83228400487778,12.999317023701833,0.6856000446022457,230.40262830114952
179.31239549999998,0.5583933430482924,0.32152679241183874,27.82558583471985,12.25147720200675,0.6827518908084659,217.14841538127737
179.342146,0.5583210064313242,0.32147409463016785,27.818864538293248,11.618604093604173,0.6829798328052391,205.93183100010512
179.37179,0.5582485500370784,0.32142158466126663,27.812168234661492,11.160403885077496,0.6892336393591906,197.81114370981769
179.4016135,0.5581766823532341,0.3213687558782085,27.8054323201644,10.364384058166138,0.6780413075827366,183.70275211026214
179.4315895,0.5581033017390014,0.32131565607665946,27.79866290628497,10.000095198541164,0.6858658127735854,177.24648397081546
179.4612715,0.5580306411702699,0.32126307618058036,27.791960816095653,9.652299200736037,0.6925691471569551,171.08249946173464
179.4907555,0.5579586428801466,0.3212108461369663,27.785304347774535,9.264270581707047,0.6968193431283718,164.20536766965492
179.5205215,0.5578868978750434,0.3211581156191619,27.778585135486207,8.611847743229923,0.6846542824999918,152.64190647327422
179.55068799999998,0.5578134744579439,0.3211046746550271,27.771776459188985,8.199942479556857,0.6839241196388234,145.34148146386246
179.580439,0.5577397251677286,0.3210519687994045,27.765062489634985,8.186551639575967,0.7050050660114673,145.1045737916031
179.6099115,0.5576682786549396,0.32099975536455644,27.758412275171917,7.725521565712094,0.6992169139991482,136.93334357521817
179.639811,0.557595838321152,0.3209467844635318,27.75166663035133,7.276268392564349,0.6913029961076799,128.97081366403052
179.669577,0.5575222565593222,0.32089404906426433,27.74495202111873,7.2201694432119075,0.7090277076901371,127.97685689176872
179.699183,0.5574504180350247,0.3208415961139943,27.73827440949547,6.819670728610601,0.7025143177523474,120.8784185458166
179.7289795,0.5573775672413595,0.3207888046133995,27.731554739530953,6.571545630867182,0.7057245821245289,116.4807645913017
179.7589475,0.5573047472456161,0.32073570818928004,27.724797310330132,6.234289743491079,0.7012939372751567,110.50323615183657
