T(K),Fc,X,m(mol/kg),cp(J/gK),cp_err(%),cpm(J/molK)
181.70744150000002,0.9086057586871634,0.3172802989365439,27.287297244456006,3.486923068338514,3.074799973022292,61.818274737152244
181.737166,0.9085905795556332,0.31722752623610984,27.280649861033407,3.449981670945903,3.167951225482668,61.16354140272556
181.76691649999998,0.9085753481918972,0.3171747052001375,27.273997418052414,3.49208958482387,3.048552088488228,61.91024663814513
181.79637350000002,0.9085601310857172,0.31712240310367734,27.267411345927563,3.8530948219422387,2.774079710338674,68.310610033611
181.825499,0.9085451889167016,0.31707068747014755,27.260900115253282,3.928737272048117,2.735628133774688,69.65186481116768
181.85508950000002,0.908530300162508,0.3170181439928951,27.254285665202588,3.2591054214177144,3.30487678587685,57.780259136965995
181.8849165,0.9085148703929948,0.31696517832231047,27.24761909717971,3.6054993379268443,2.9602648361945247,63.92162728039399
181.9140305,0.9084997280084228,0.31691347658276153,27.241112612007157,4.161081472053347,2.620438592313194,73.7717210820869
181.94325099999998,0.9084850179593168,0.31686158352797766,27.234583040803308,3.4641830518944428,3.138499534007018,61.41660814148745
181.9733105,0.9084697551316478,0.3168081981784979,27.227866733078603,3.08112814695062,3.427270075376633,54.62558399356396
182.00274100000001,0.9084541729466298,0.31675592764655874,27.221291695307478,4.261745954368249,2.5512349493587654,75.55708552605813
182.03179749999998,0.9084395444026928,0.31670431913536223,27.214800919128034,3.5272775377309866,3.096658909458093,62.53577903428586
182.0615215,0.9084243347783192,0.3166515227418023,27.20816175810292,3.3988730471785624,3.127007776611748,60.2594545886033
182.091162,0.9084090094671604,0.3165988723237622,27.201541975110562,3.6551424152653285,2.955732222220208,64.80311376296872
182.12058100000002,0.9083938741838676,0.31654661303083753,27.194972377204575,3.727241205710773,2.8515340582653432,66.08157382520308
182.149973,0.9083787651049884,0.31649439937109186,27.188409519195062,3.7586423022477815,2.8332738290832404,66.63849547073184
182.1794415,0.9083636462497804,0.3164420474595551,27.181830290586987,3.690748364406887,2.9247119319244534,65.43497371014755
182.208937,0.9083484471048374,0.3163896452067478,27.175245744582305,3.7575638396279323,2.8784667161558266,66.6197771704502
182.2383865,0.9083332890711796,0.31633732229243877,27.168672174877383,3.7546404190145566,2.903686228246266,66.56814708292413
182.2678055,0.9083181258444676,0.3162850511714463,27.162106116829086,3.771777393183278,2.8573571953749917,66.87217965948213
182.297194,0.908302987813712,0.31623283183564765,27.155547566202536,3.753258357859441,2.874905615145827,66.54404446693147
182.3265365,0.9082878445985564,0.31618069182030695,27.148999977321026,3.811681279304522,2.8622484825155197,67.58006685061886
182.356024,0.908272742593812,0.3161282917010364,27.14242073124851,3.573666795959387,2.9397055229113946,63.36032648427119
182.385275,0.9082574384006542,0.31607630941003606,27.135894942930047,4.139065514602662,2.6369062113068895,73.38494128971767
182.4144195,0.9082425690072335,0.31602451395034625,27.129393595749644,3.743423196650803,2.8726726374804468,66.37046709404774
182.443545,0.9082273632445912,0.31597274981796203,27.12289716444956,4.214913337455276,2.6065820596663265,74.7301565498194
182.47247950000002,0.9082125023179696,0.31592132271623385,27.116444004296497,4.024812578042504,2.69885516960451,71.35989316987478
182.501677,0.9081974824655206,0.315869425698326,27.109932861787577,3.856281996039169,2.7873566112141477,68.37205186024487
182.5310195,0.908182338645606,0.3158172684358006,27.103390063489833,3.7914690010399617,2.8395155288715603,67.22311663055153
182.56024,0.9081671575616912,0.31576532551174397,27.096875143933254,3.9649278467356996,2.7508634057161543,70.29876938863418
182.58934599999998,0.908152128440343,0.3157135836094215,27.090386420780646,3.915402691218992,2.7304230592025416,69.42088791035427
182.6184635,0.9081370543513406,0.3156618187361965,27.08389579880975,3.961427908402397,2.7157400302441705,70.23713392691194
182.6474745,0.9081220020028444,0.315610240668994,27.07742957636061,4.07791327293616,2.656308565652101,72.30266426423216
182.676371,0.9081070268138226,0.31555886364490715,27.070989527091424,4.143863840584419,2.6014534813446457,73.47220577803932
182.705622,0.9080920817404204,0.3155068537508011,27.06447113301024,3.6591812573242906,2.9563582359289655,64.87880260692718
182.73485,0.9080767279805148,0.3154548821434321,27.057958526808022,4.1955175920842525,2.6225004501958065,74.38849125497255
182.7637085,0.9080617953890712,0.315403564987337,27.051528900668867,4.134078138217039,2.6182787223654076,73.29935774585118
182.792662,0.9080468131277344,0.315352076314884,27.045078753603196,4.066041621682715,2.6769833278096216,72.09324880437572
182.821623,0.9080317707655337,0.31530057170084785,27.038627580024578,4.1253026646049795,2.6169856118235897,73.14419817070055
182.8504855,0.9080167694166312,0.3152492396545784,27.032198986896656,4.189553959983811,2.5758326147409454,74.2836335977508
182.8796105,0.9080018179508264,0.3151974380993124,27.02571257161058,3.763362539096512,2.8679998880962096,66.72716980620442
182.9086935,0.9079865326749984,0.3151457085719104,27.019236154613335,4.219598908345561,2.56132703582839,74.81679729568557
182.9380175,0.907971613465552,0.31509354766153086,27.012706720038,3.430680330704874,3.0885034115713896,60.8288351597033
182.9672955,0.9079560660759136,0.315041465835333,27.006188177314666,4.2458964286150955,2.6134325897150315,75.2835252029712
182.99621050000002,0.9079411832406632,0.3149900270381303,26.999751088808043,3.8599691030899925,2.7541382966857464,68.44089288348151
183.0254005,0.907926001498442,0.31493809628708436,26.99325341742643,3.8539920974307784,2.758788525339264,68.33511943946094
183.0542625,0.9079108212247888,0.3148867463478804,26.986829386861448,4.260117682990772,2.5566893530536614,75.53635420104139
183.0829985,0.9078959692768588,0.31483561788088377,26.980434019813146,3.983827069189862,2.739280216706689,70.63763999349223
183.1120095,0.9078809086975168,0.3147839973719842,26.973978074283952,3.8707465771592062,2.7587475861352395,68.63280253781552
183.1411845,0.9078657590472604,0.3147320822507116,26.967486263888247,3.7606696744113526,2.8600834941832254,66.68121154686787
183.170451,0.9078505160542244,0.3146800014744142,26.960974727154003,3.739182305074579,2.8788785542502153,66.30041354330301
183.19946149999998,0.9078352593637214,0.31462837344063144,26.95452077249441,4.066577234071421,2.6886452983922453,72.1057526699603
183.22828149999998,0.9078202715950452,0.31457708163361786,26.94810981189831,3.956084530624594,2.701816731667949,70.14677932924569
183.257273,0.9078052019738136,0.3145254817793567,26.94166131657359,3.819554797740195,2.8253747891678644,67.72612216828017
183.286665,0.9077900237901524,0.314473166198356,26.935124367076952,3.432121915844361,3.1142339523599794,60.856571313345476
183.31614150000001,0.907774524435144,0.31442069725966915,26.928569257234226,3.7065785238366984,2.906225894004736,65.72328950612142
183.3450455,0.9077592461756068,0.31436924449843273,26.922142075964015,4.166383341014451,2.6145120098626506,73.87654913078623
183.3740065,0.9077443329478598,0.31431768738765525,26.915702827464756,3.6103755198764342,2.9924243133478825,64.01784355474535
183.40290299999998,0.9077289833895644,0.31426624221125726,26.90927852418297,4.225254807957963,2.5413784901535545,74.9208778082923
183.431906,0.9077141261454588,0.3142146045125972,26.90283114863254,3.4647382238214246,3.057672840015359,61.43582182081961
183.4612715,0.9076986533845276,0.3141623184164395,26.896303804747443,3.7585359863777903,2.842341205416682,66.64556684527948
183.490481,0.9076834053015396,0.3141103070799307,26.889811748923826,3.693652291870472,2.931594867944073,65.49525916826025
183.5198695,0.9076680837715172,0.31405797397296503,26.88328052337793,3.5579377919217565,3.0238320220598327,63.088981343141235
183.548949,0.9076526363385056,0.31400618809896075,26.876818574000804,4.1144343667953445,2.6133197870398557,72.95693820401516
183.577933,0.9076376265646242,0.3139545692969642,26.870378443056843,3.6885599595726886,2.931064212375202,65.4055497072153
183.607264,0.9076222672415748,0.3139023294462962,26.86386181465467,3.651717641995871,2.935364397678761,64.75245661082062
183.63646549999999,0.9076068819780964,0.31385031716613254,26.857374560206168,3.8218925218740676,2.863844032365771,67.77020999119551
183.665591,0.9075916464528612,0.31379843718235995,26.850904786167852,3.7092531750274627,2.8527455701832833,65.77307358758073
183.694838,0.9075763289179268,0.31374633767463733,26.844408620486483,3.6314443615035765,2.9546985932897427,64.39354851881899
183.7241345,0.9075609539473556,0.3136941468587509,26.837902058684502,3.6148348779990704,2.9904079574026445,64.0992183770131
183.75336650000003,0.9075455724096956,0.31364206780955217,26.831410417036146,3.691682044796678,2.928043940458749,65.46208933205314
183.78254900000002,0.9075302531146628,0.313590073806749,26.824930359053077,3.6796794364523695,2.9212575537476067,65.24945072570091
183.8117775,0.9075149115234356,0.31353799468506155,26.818440676666,3.6538553023829126,2.8940595624241596,64.79172196875628
183.84121549999998,0.9074995318366774,0.3134855390646628,26.811905073349756,3.4344264734543555,3.11576445763734,60.90090038741789
183.87041699999997,0.9074839578009416,0.3134335016630311,26.80542256393144,3.9733353356196086,2.7534324736353413,70.45730253366492
183.899485,0.9074688147882548,0.3133816989788011,26.798970270162712,3.601233054557119,2.9628903849279813,63.859176934632416
183.928839,0.9074533690273096,0.313329383372211,26.792455077279673,3.5822981352481267,3.0127591583209847,63.52360333424081
183.95825050000002,0.9074379129337066,0.3132769620109119,26.785927709781493,3.511105364390077,3.013212415371633,62.261355624808374
183.9871355,0.9074223943428464,0.31322547584598864,26.779517760389588,4.2736040569751745,2.543108062515128,75.78273613915579
184.016032,0.9074074808755568,0.3131739659885036,26.773105822984217,3.4988259092979725,3.054294622510536,62.04397603119453
184.0455195,0.9073919380262916,0.3131213993270716,26.766563326297344,3.513025434396338,3.0749825410479454,62.29596204719084
184.07491149999998,0.9073763894944192,0.3130689995700667,26.760042599245512,3.653060478962515,2.9170023212054046,64.77937843732526
184.1043115,0.9073609349920017,0.3130165821984203,26.75352067543405,3.5386797613182037,3.045125663812191,62.75126544405518
184.1334635,0.9073453656113124,0.3129646036614458,26.74705433544331,4.0107715245659215,2.681977585303791,71.12306265457302
184.162619,0.9073301606716128,0.3129126155570422,26.74058778386021,3.563654852101191,3.015238346391449,63.19452629947529
184.192076,0.9073145752520542,0.3128600864443712,26.734054932675633,3.6285580238686217,2.9375248173680952,64.34565328098056
184.221228,0.9072990395889956,0.31280809784849634,26.72759028694589,3.938997109789474,2.755006375561467,69.85091595604855
184.2500405,0.9072837641511762,0.3127567113921248,26.721201476834885,4.032725431426527,2.679465789585694,71.51322821419987
184.279013,0.907268575246716,0.3127050362444873,26.71477773752116,3.6951339923607307,2.9299973272131568,65.526838311484
184.3083745,0.9072531184920244,0.3126526638526113,26.70826830927013,3.5162394394934795,3.024969509229419,62.35463964230711
184.337683,0.9072375057769672,0.31260038254223965,26.701771190959565,3.7755235164438035,2.8657383684142905,66.95281182603642
184.366469,0.9072220927433412,0.31254902990697303,26.69539044328292,4.223207394325175,2.573482808651902,74.89198395972383
184.395453,0.9072070210632264,0.31249732065707364,26.688966348134247,3.551945671510015,3.0175970669304237,62.98839389075047
184.424811,0.9071913860275052,0.31244494068177786,26.682459910622743,3.7734839808301,2.859192230442265,66.91724330024304
184.4540815,0.9071759058297448,0.31239271331438795,26.675973416429848,3.715531113616655,2.86870054951602,65.88973187626951
184.483237,0.9071603510126812,0.3123406876446176,26.669512952113358,3.955331523470324,2.7145325856328095,70.14246599990163
184.5123735,0.9071449804024392,0.3122886923773897,26.663057239753297,3.7549237157600652,2.872634029387519,66.5887035179674
184.5415595,0.907129433290248,0.3122366052513541,26.65659110093763,3.9178478412417412,2.738140594097618,69.47816015641371
184.5708675,0.907113997791749,0.3121842968325047,26.650098476238984,3.6359928533978314,2.924735570941299,64.48000673437983
184.59989,0.9070983085711292,0.31213249443490676,26.643669633073785,4.337505206272073,2.5019545193617447,76.92072316436185
184.6290195,0.9070831640455026,0.312080497501313,26.637217621052642,3.536773599405694,3.0645091698997677,62.72084644509403
184.658347,0.907067348495338,0.3120281435234543,26.63072229073754,4.112046865095934,2.6285572503619576,72.92291427598968
184.6875485,0.9070519811794766,0.3119760108616551,26.624255400385618,3.745319285759446,2.8330918669343874,66.41957802679386
184.71651350000002,0.9070362868927784,0.3119242968410234,26.617841409301793,4.490702274984587,2.427012100803009,79.63845433093687
184.7453295,0.9070211589318762,0.3118728452961151,26.61146092929929,3.9889081645309186,2.7047790933583964,70.73980927311865
184.774943,0.9070056107434809,0.31181996609642587,26.604904400696828,3.4705161916583025,3.0873097864190915,61.546767021490425
184.8046025,0.906989621041244,0.3117670009798356,26.59833822917433,3.918477946830924,2.769700260145351,69.49121454449023
184.833785,0.9069740110551856,0.31171488397214214,26.59187818550995,4.034179414460523,2.665875033191184,71.54330656512695
184.862742,0.9069585168105424,0.31166316603805233,26.58546857512443,4.154496188631433,2.558021725455199,73.677258643791
184.89175649999999,0.9069431347135825,0.31161134174957744,26.579046749882426,3.9204685199307794,2.747559078378193,69.5271393992877
184.92098099999998,0.9069275666330476,0.31155913865318474,26.572578961989556,3.8587558752246154,2.8378535670119773,68.43290877917971
184.9508425,0.9069119479247056,0.3115057938296014,26.56597073115557,3.1392567699531337,3.3767345132668938,55.673159796997666
184.98058550000002,0.906895686840668,0.31145265679351636,26.559389258509597,4.070087250018587,2.586199150340091,72.18119707891053
185.00987450000002,0.9068801817427228,0.31140032702560533,26.55290876558711,3.756085247500934,2.8501429558524647,66.61271129507493
185.039061,0.906864392448954,0.31134817660503866,26.546451462783498,4.250269530170007,2.535329239840043,75.37710386798581
185.0680835,0.9068489842747904,0.3112963154570566,26.540030947726223,4.006134924961832,2.717148244140322,71.04767086008476
185.0976855,0.9068333575423208,0.31124341490356006,26.5334827483131,3.5331151216740926,3.0387097625347184,62.65898929065817
185.12714599999998,0.9068173166679564,0.31119076331344053,26.52696636509597,4.205299327951071,2.550415935693653,74.58024882309788
185.1561035,0.9068018284799104,0.31113900686943713,26.520561739815452,4.169260544398949,2.5869025507808208,73.94132778380455
185.18534699999998,0.9067863131231558,0.3110867354007471,26.514094359305922,3.799813943596451,2.8375348280235984,67.38944028273077
185.2148075,0.906770505895936,0.3110340721270782,26.507579494442474,3.8379920275688835,2.8015296721793126,68.0667325170666
185.244383,0.9067547451815564,0.31098119930072443,26.501039708092904,3.594283305745701,2.93105979366959,63.74475608009819
185.2739205,0.9067388015388332,0.31092839041257514,26.494508831977846,3.8181341998401,2.791530673829829,67.71496653593712
185.303324,0.9067230684827216,0.3108758171167604,26.488008085829435,3.7108087450052953,2.91428776827279,65.81173891578732
185.3326705,0.9067072554067532,0.3108233417613721,26.481520439161795,3.86427418243756,2.803228274609265,68.53367822163725
185.36211250000002,0.9066915705201976,0.3107706916336642,26.475012177829058,3.5921034259627924,2.9719220276809364,63.706868475953875
185.39175649999999,0.9066756417707404,0.31071767620709445,26.46845976528703,3.6259208083349463,2.917122996886348,64.30682477944099
185.421057,0.9066597267698436,0.31066527106960345,26.46198377161952,4.044521299154759,2.641225979786361,71.73105027136702
185.450373,0.9066441539775044,0.3106128341875805,26.455504840569912,3.6015467089538604,2.960370631626645,63.874928428125294
185.47972750000002,0.9066282091202126,0.3105603243953327,26.449017888565162,3.9802298035708326,2.7526266717756096,70.59124412713315
185.50895200000002,0.9066125819822972,0.31050804311233526,26.442560147740583,3.750783238997199,2.868381294325142,66.52210195896086
185.5384315,0.9065967638044098,0.3104553015503236,26.43604654585463,3.6419432087438404,2.926753955223983,64.59196338113031
185.5675605,0.9065808491137236,0.3104031830100337,26.429610866133896,4.200249561168638,2.5539701230376557,74.49407224047768
185.596831,0.9065653953094324,0.31035080721808705,26.423144400507056,3.4354918483528043,3.101856176444473,60.93079624444651
185.6262155,0.9065493149473612,0.31029822331377166,26.41665322871491,4.009785076548431,2.7049288609455457,71.11649464855478
185.6557375,0.9065337253680684,0.3102453891753543,26.410132163797382,3.2362688891879476,3.2575676677134444,57.397789484208126
185.685351,0.9065174832440556,0.3101923870628848,26.403591370345385,3.8519540753622508,2.7901924706464243,68.31766204132346
185.71428550000002,0.9065017818192592,0.31014059612385925,26.397201014174858,4.054762886395596,2.6669748701426452,71.91486234137854
185.7433345,0.9064862590293634,0.31008859614812223,26.390785830731698,3.6772842293426296,2.9365204424057287,65.22013464204808
185.77277600000002,0.9064704209828722,0.3100358893715259,26.384284436775136,3.5547486762090963,3.008269974641185,63.04704146179924
185.80208800000003,0.9064544612314565,0.3099834102179845,26.377812106969337,3.87815089192912,2.745641563070059,68.78311284183162
185.8312365,0.9064387498432968,0.3099312196080623,26.37137633999131,3.8004123663480933,2.848563145144792,67.40454043910722
185.86069750000001,0.9064229535212208,0.3098784652130321,26.36487204037081,3.50257930740533,3.0528747988839204,62.12232866963982
185.8895975,0.9064068909493356,0.30982671120629074,26.35849204883604,4.563466796914267,2.380109993620579,80.93864681272218
185.918322,0.9063916884620172,0.30977526738020267,26.352151243096387,3.7194631192978127,2.903049376949223,65.96940820829433
185.94746600000002,0.906375802602202,0.3097230680591594,26.345718283438078,3.9846681417835885,2.6630728239138235,70.67336905652282
185.976881,0.9063601331890256,0.30967037905419825,26.33922596251778,3.3750321214622425,3.157831459193444,59.860848190975325
186.0062085,0.9063439403633422,0.30961784246576557,26.33275340898325,4.103914738159227,2.657280475920647,72.78880669220233
186.0353835,0.9063283525604242,0.3095655747713859,26.326314960901296,3.584935778582318,2.9669736160177727,63.58416287381056
186.064673,0.9063123114687718,0.30951309762788354,26.319851693029175,3.98256910818106,2.7141156055560387,70.63699436581486
186.093638,0.9062965863367866,0.30946119761053437,26.313460472224943,4.010029682478505,2.7186746511678304,71.12426258463611
186.12266,0.9062808839418468,0.30940919118526894,26.3070571114279,3.905492562841237,2.741599114030489,69.27033782597942
186.1517015,0.906265083774717,0.30935714551942256,26.30064988453851,4.019999777411962,2.6967954174837367,71.30152550423017
186.1805255,0.9062493470399602,0.30930548537346747,26.294291073051635,4.255794338379079,2.5284097649002315,75.48396727477794
186.2096275,0.9062337700018542,0.30925332265392025,26.287871365191325,3.7121153292679483,2.884282280721649,65.84106556536537
186.2386995,0.9062177178838428,0.30920120935324985,26.281458707488238,4.312700520788266,2.5141378376789874,76.49375761475828
186.2679315,0.9062021603584598,0.30914880484115326,26.27501119115303,3.4798360056056583,3.0854623723665786,61.721544140122184
186.296984,0.9061859206089048,0.30909671773265823,26.268603695339706,4.509213361896933,2.402160373151375,79.97975945945049
186.3257585,0.9061705453147314,0.3090451247135624,26.262257932281578,3.7872432366644797,2.8715500937334455,67.17440029098793
