T(K),Fc,X,m(mol/kg),cp(J/gK),cp_err(%),cpm(J/molK),cp_SMA_1K
183.98865,0.1412559263277192,0.3132227762324396,26.77918168911762,3.2725059052678884,0.3582908149952671,58.03052571194458,
184.0169205,0.1411167329312578,0.3131723821297011,26.772908679778244,3.3308260778926457,0.3633898173593126,59.06487420603443,
184.0454275,0.1409795348722626,0.313121563338486,26.76658373775667,3.2052212489113536,0.3527688928089545,56.83771527327698,
184.0743125,0.1408379208986477,0.3130700674945397,26.760175483900525,3.221927742047845,0.354305039643298,57.13413858281838,
184.10261,0.1406969169108773,0.3130196159009051,26.75389811050114,3.366179426186762,0.3669753506725065,59.69231352586123,
184.1304035,0.140560944630791,0.3129700598521238,26.74773306164327,3.358077692147079,0.366562876770258,59.548815868970095,
184.1587735,0.1404247692089303,0.3129194727820692,26.741440665249517,3.198501465932127,0.353057801754629,56.71921483181277,
184.1878685,0.1402830449155752,0.3128675896663643,26.73498801945775,3.15323242046332,0.3492647974575992,55.91662334894237,
184.2165665,0.1401396570947903,0.3128164112207826,26.728623967313847,3.305918856111557,0.3625537913494179,58.62440187759743,
184.244864,0.1400017138901201,0.3127659438086584,26.722349260555596,3.261109044073631,0.3586241998250226,57.82995029093268,
184.2728945,0.1398621431406908,0.3127159494373936,26.71613427643328,3.385085749467177,0.3692571126742184,60.02862888128068,
184.301356,0.1397267139139849,0.3126651831335505,26.709824255694453,3.1448498205672983,0.3485834389311174,55.76862418167949,
184.3300575,0.1395828046144644,0.3126139854524556,26.70346156068042,3.313554422486296,0.3632298751870703,58.76049000093576,
184.358408,0.1394449127179858,0.3125634106240535,26.69717720245457,3.237508811124916,0.3567548168825666,57.41211226539397,
184.386984,0.1393043393853057,0.3125124302302229,26.6908433849952,3.248236983064833,0.3577459649642162,57.60252867968034,
184.415541,0.1391641238211606,0.3124614804162661,26.68451430523669,3.2422400265316944,0.3572296459676896,57.4963505948319,
184.4436515,0.1390236272476996,0.3124113239710899,26.67828469537552,3.3775944134004634,0.3687467079833402,59.89683435112097,
184.4718155,0.1388876943145662,0.3123610688192829,26.67204373725885,3.231095145962323,0.3558897483248205,57.299044068114185,3.2657766236407495
184.5003915,0.1387465628122598,0.3123100751675701,26.665712000567623,3.265863822513692,0.3585878984034514,57.915789063744334,3.265740484586542
184.52912,0.1386064684957798,0.3122588059783935,26.65934699775033,3.196668554227671,0.3523424173877804,56.688869673561925,3.2634409321211
184.557818,0.1384637241012722,0.3122075877997297,26.65298927532157,3.280671318137525,0.3592577813564894,58.17872403304018,3.2675459683276484
184.5866685,0.1383238195261885,0.3121560939899142,26.646598293217732,3.162844919223774,0.3488185976253753,56.08938227319602,3.2656928243134864
184.6154045,0.1381794591004637,0.3121048010828151,26.64023319671104,3.320758996213303,0.3620621052742129,58.88997911967653,3.264038375295842
184.643496,0.1380405722968324,0.312054655235175,26.6340113599393,3.3441839595488303,0.3641587990898895,59.30556622624174,3.2625217394719255
184.671946,0.137902455181567,0.312003866039616,26.627710624402088,3.2174041007445,0.3534386801500916,57.05742646498296,3.264983988530638
184.700663,0.1377599227656556,0.3119525967163552,26.621351269275983,3.264164056509684,0.3576144322493659,57.88683826073455,3.2701202460127745
184.728915,0.1376190610960222,0.3119021541491542,26.61509538834848,3.345900888677526,0.3647075202960377,59.33653552582405,3.2675086007537555
184.7571665,0.1374810079186487,0.3118517090667728,26.60884011269296,3.2639095021026274,0.3576454299313089,57.88266044759729,3.266767840134412
184.785895,0.1373400409860393,0.3118004087581038,26.602479728005704,3.213566444129333,0.3532593020346631,56.99003756071463,3.2621590858841762
184.8145475,0.1371971650176031,0.3117492406243229,26.59613667531501,3.288909372438971,0.3594926233152922,58.326356252440576,3.2684882251399556
184.8430775,0.1370568372342542,0.3116982877287209,26.589821241742907,3.251886338782032,0.3560625868646778,57.66994965167713,3.2671878850603653
184.871596,0.1369150593726033,0.3116473518428211,26.583508850951663,3.29531406881277,0.3596684739571635,58.440281843741104,3.2698945734817406
184.900313,0.1367747341403594,0.3115960578442651,26.577153023914654,3.1977917540653595,0.3515132823733336,56.71095373258211,3.268648561467784
184.929049,0.1366308787097729,0.3115447262992373,26.570793492637076,3.2881648046539604,0.3593584494694886,58.3138390345551,3.26912873702395
184.9575865,0.1364902531328258,0.3114937457510264,26.56447838537255,3.250513675005472,0.3560789819004061,57.64628577186711,3.2666613594332112
184.9861815,0.1363482492211858,0.3114426588834998,26.55815104609242,3.271241038370623,0.357829548981826,58.014046283309135,3.2680772607606254
185.014773,0.1362069418195294,0.3113915746531126,26.551824972193607,3.250341741602166,0.3562189863238008,57.64357594679624,3.270546991495425
185.043097,0.1360648592862649,0.3113409647843762,26.5455585669056,3.3488975161405463,0.3644160388443969,59.39159834789953,3.270995751921553
185.0717795,0.135926092511795,0.3112897106972664,26.53921333451458,3.157067701552176,0.3479847586775343,55.98972488443927,3.270638303007601
185.1006035,0.1357803398801999,0.3112382000493984,26.53283729148101,3.308273710569234,0.3609781789381843,58.67149587403809,3.2763781783663837
185.128882,0.135640056994919,0.3111876606250503,26.52658239435576,3.3049954383099847,0.3606592708691302,58.61352712108398,3.273133255772007
185.157248,0.135499604359938,0.3111369611989177,26.520308617134926,3.284680182987073,0.3588467965112125,58.25340971483207,3.270569405951534
185.1855185,0.1353583409361353,0.3110864288406079,26.514056432501803,3.3330014323380883,0.3630449399087722,59.11055338182499,3.2740040260599494
185.2140375,0.1352187257443431,0.3110354486211053,26.507749765000884,3.214511272045897,0.3530067852361394,57.00930590875973,3.2746650543113796
185.2428995,0.1350748792731287,0.3109838514842679,26.50136773007921,3.235182422396604,0.3547561202689619,57.376078994188944,3.27268771720893
185.271723,0.1349317402502733,0.3109323193707587,26.494994691837125,3.223779350708935,0.3538821564447901,57.174014849066495,3.2711611842608006
185.3000855,0.134788160142251,0.310881607731998,26.48872405319652,3.3663696945195603,0.3660038788360998,59.70304177355202,3.2726288181870054
185.328299,0.1346494944259297,0.3108311588237394,26.482486817606357,3.268042519700641,0.3574400536117655,57.95936391029999,3.275236271178463
185.3566385,0.1345072835352843,0.3107804809061187,26.47622218783524,3.332242905873051,0.3628478718834819,59.09814268441111,3.2741206146674413
185.3852105,0.1343672521310437,0.3107293834469548,26.4699066284543,3.2046265625763493,0.3519396388511515,56.83500295124716,3.274760211758272
185.414042,0.1342226100942172,0.3106778180481406,26.463534181734737,3.259046170997521,0.3565568131888514,57.80032257135794,3.274993403006269
185.442561,0.1340798781070275,0.3106268077335689,26.45723127025436,3.291236197724588,0.3593137271949387,58.37139548966568,3.275353257254843
185.471003,0.1339382355146003,0.3105759313421732,26.450945835555626,3.280651692421824,0.3584876001811878,58.18384558445524,3.2764389496482886
185.4992355,0.133796156775312,0.3105254259306987,26.44470715040613,3.3523043982316736,0.3644850710736555,59.45481181791231,3.2761647208790543
185.527716,0.1336564916334261,0.3104744730513388,26.438414117855714,3.212375169142157,0.3525961380230836,56.97326350697107,3.277153770885815
185.5564825,0.1335118223174114,0.3104230045985945,26.432058352578935,3.2681606061492023,0.3574989181561844,57.96282118909853,3.2716483471533833
185.584696,0.1333691867723073,0.3103725217352233,26.42582521793156,3.363740556781168,0.3659053359422284,59.65816340885611,3.276291387387735
185.613108,0.1332299268708615,0.3103216798488408,26.41954867686222,3.2071867054101344,0.3529425033333249,56.881743930877285,3.2743490722645183
185.6418825,0.1330851920636233,0.310270185341112,26.41319251148827,3.254449215832249,0.357081390120163,57.72014950555885,3.2713943053603636
185.6701835,0.1329421933250892,0.3102195343169408,26.4069413863672,3.3376158045390527,0.3642544637736741,59.195345394640285,3.273731658242701
185.69837,0.1328020786548347,0.3101690843720582,26.40071599008352,3.287300045309737,0.3598568785389287,58.30312372203427,3.271101468620104
185.726782,0.1326601109807708,0.3101182269171523,26.39444122965619,3.276694090091789,0.3587671420986813,58.11518816440203,3.273405151325676
185.75548,0.1325176251639733,0.3100668535377668,26.38810375398937,3.2104808489181003,0.3531234855367637,56.94100386562673,3.274019145621673
185.784216,0.1323726767101108,0.3100154081065064,26.38175833563572,3.26493363154649,0.3578286908108488,57.90694861319543,3.2740092498313538
185.812346,0.1322296932075951,0.3099650436675259,26.37554716633784,3.380170227139995,0.3677585502013148,59.95096184991089,3.2731163905964675
185.840655,0.1320907027191716,0.3099143548188442,26.369296904772,3.2128383608962863,0.3537193818301068,56.98331727076903,3.272722923437184
185.8691695,0.1319458084146614,0.3098632940169018,26.363001707236425,3.317699966991833,0.3626413385761133,58.84332939477907,3.269630196836623
185.897707,0.1318046428502577,0.3098121880019308,26.356701868153003,3.205953447745252,0.353130007814263,56.86154024191752,3.27048485176848
185.926302,0.131659399233955,0.3097609749591926,26.350389771581277,3.300759703354068,0.3613097399441633,58.54321889423814,3.271415984507807
185.9545845,0.1315175405886661,0.3097103175913966,26.34414708432122,3.288512908776052,0.3604774667987478,58.326176459144975,3.268292877172706
185.9829775,0.1313753179373134,0.309659458283899,26.337880432980533,3.261643031447404,0.3586901011402707,57.849772734089946,3.2684390244566757
186.01135900000003,0.1312322332308106,0.3096086155361298,26.331616744898263,3.2849584918387977,0.3608853049481003,58.2634754890892,3.2673511388189547
186.040118,0.1310900101378131,0.3095570923993798,26.3252701758356,3.156207685505454,0.3498398077690849,55.98006045362311,3.267417776318843
186.0687625,0.1309430106027106,0.3095057702447368,26.318949305149182,3.3195741097544587,0.3636902709102191,58.877782230801664,3.2673125610661358
186.0971095,0.1308018221655375,0.309454977027561,26.312694503827707,3.240292681256668,0.3567905196290158,57.47177162054968,3.2634322140123957
186.125895,0.1306576968557109,0.3094033939109302,26.30634337400247,3.20157859666457,0.3531498390439129,56.7852841778013,3.2653302102350383
186.154261,0.1305119758294205,0.3093525583981689,26.30008522048557,3.3664875338688782,0.3670074709025087,59.710391412625306,3.2656931096341384
186.18249,0.1303719582419636,0.3093019643207054,26.29385770373806,3.2409447955471773,0.3563521493790909,57.48384462664129,3.262912673522438
186.2109515,0.1302274989608262,0.309250949399325,26.28757930989913,3.2951401667409312,0.3612498085272755,58.44526642726789,3.265024502975145
186.2393365,0.130085022156195,0.309200067443785,26.28131820381812,3.256672222756507,0.3582225510566393,57.76313723275403,3.2628938196031427
186.267958,0.1299412157550243,0.3091487573323194,26.27500534641345,3.2234329980477576,0.3556388028513981,57.173746778802055,3.2647732484361423
186.2962785,0.1297962345676362,0.3090979826483774,26.26875928750476,3.335119621298547,0.3655928317601393,59.154895595863024,3.2671051393095962
186.324454,0.1296553484016063,0.3090474637908695,26.262545610198853,3.2542711691257127,0.359144609650134,57.72105752200814,3.263163684492648
186.352999,0.1295117129243825,0.3089962781947024,26.25625085253598,3.223997474853395,0.3566313144420289,57.18426116318464,3.2645618574268234
186.381609,0.1293669771502578,0.3089449717649923,26.24994217066935,3.2345394851913625,0.3575698670510066,57.371415083661056,3.2634450944978557
186.4099865,0.1292225653200481,0.3088940780335669,26.24368515995018,3.29163581687397,0.3622941307480961,58.38431074750977,3.2663877500983727
186.438574,0.12908006081882,0.3088428033885095,26.23738225054352,3.181927440996052,0.3526345771704418,56.438561120232464,3.264356220204759
186.467196,0.1289334046804159,0.3087914625383601,26.23107213983598,3.285766847360772,0.3613477828406744,58.28055634652018,3.266356914154182
186.495341,0.1287904322361781,0.3087409730750548,26.22486758401814,3.3142284009114364,0.3640472059881197,58.78555778387112,3.2652211631076202
186.523726,0.1286484845297068,0.3086900488085597,26.218610514082428,3.2147074816382366,0.3557038001408161,57.02048982414143,3.264586317911351
186.5522825,0.1285029630582244,0.3086388125249761,26.212316036829645,3.264478072304456,0.3599112615755335,57.903460634888674,3.2695782717638697
186.580801,0.1283591593715288,0.3085876400666346,26.20603033177913,3.2279284099002723,0.3565397775578137,57.2553322338676,3.267547678389509
186.609301,0.1282139017560905,0.3085364964427591,26.19974909814803,3.2736165732026303,0.3602756629054569,58.06589642641695,3.2658822103244867
186.637675,0.1280701657649456,0.3084855745830653,26.193496023684187,3.267150694800735,0.3596222039955948,57.951377662630144,3.2690476756227858
186.666182,0.1279260656632332,0.3084344096537629,26.18721402835828,3.240300540629533,0.3570827526394511,57.475290055508175,3.267451363091666
186.6943765,0.1277808598410045,0.3083838012749511,26.181001280282484,3.361214076154498,0.3672530597894123,59.62018484167181,3.267316196016727
186.7227275,0.1276398133366889,0.3083329076266075,26.174754429019952,3.2021201720717007,0.3534536513036529,56.79839246444502,3.268198046831993
186.7513985,0.1274928971156999,0.3082814350814071,26.168437457057703,3.2762608580730834,0.3594247961813226,58.113653392895145,3.270019114357498
186.7795815,0.127348480194006,0.3082308342532121,26.162228382939706,3.346549812117395,0.3651111912381524,59.36059769321204,3.269240047140336
186.807898,0.1272064029902016,0.3081799893464704,26.15599027354942,3.242219308546784,0.3562115628456658,57.51016734232564,3.2674156992720667
186.8365195,0.12706050808872,0.3081285923009851,26.14968535467678,3.261774413592427,0.3577357876653477,57.85720517334325,3.2648914244757177
186.865019,0.1269152080550339,0.3080774098451204,26.14340769051335,3.2786132644779724,0.3590954729788604,58.1560634048873,3.267999778672046
186.8933545,0.1267704323637239,0.3080265174608761,26.137166525191304,3.3089463937633585,0.3616379217679301,58.69428472069136,3.2696115569685253
186.921862,0.1266266808292609,0.3079753116551036,26.13088785002098,3.229656157077587,0.3550082493544553,57.28799884589444,3.26748589749138
186.95019,0.1264800311735355,0.3079244237882085,26.12464907986092,3.358537197005864,0.3661335429883302,59.57427965018889,3.2678680514417358
186.9785295,0.1263379886357373,0.307873510777907,26.118408145237854,3.221891744817729,0.3547977699358499,57.15060798234456,3.271032392526796
187.0071815,0.1261910988531562,0.3078220317751241,26.11209876452604,3.262738909969368,0.3584927814947879,57.87533539781136,3.2659686964449315
187.035433,0.1260457484731668,0.3077712678333613,26.10587794223617,3.3309260703436103,0.3644311645370328,59.08503026216419,3.2663109835527204
187.063723,0.125902822457244,0.3077204302050785,26.09964900441365,3.248503341651851,0.3576136412882746,57.62315832791801,3.2663698041231743
187.0925275,0.1257569571850297,0.3076686633630922,26.093307153643057,3.182001298980871,0.3522173474411044,56.4436887182796,3.2700269186368525
187.121092,0.12560865465925,0.3076173231986843,26.087018510897177,3.312369882105044,0.3634554518838708,58.75639570771546,3.2666425153367116
187.1491875,0.1254651177453847,0.3075668214614755,26.08083347668859,3.310616595279685,0.363329518927656,58.72546590702966,3.2663512401411188
187.177546,0.1253214851281641,0.3075158424158983,26.074590900665665,3.2362139479242984,0.3570638810289417,57.40584102277989,3.2659295172122875
187.2058475,0.1251751378671718,0.3074649612511819,26.06836122693717,3.32600494527524,0.3647841935148453,58.99877876084524,3.263857095137358
187.233851,0.125031967374712,0.3074146113161543,26.062197495763527,3.320409586149195,0.3643273964662399,58.89969556969077,3.264571803821496
187.2623005,0.124888547795394,0.307363454858964,26.05593594964332,3.196165645447088,0.354097047410655,56.695938666612165,3.2662558018276213
187.290884,0.1247406895564842,0.3073120527467863,26.04964526690209,3.2712674459091176,0.3610918979783636,58.02832149549934,3.2602178596638844
187.3195365,0.1245957751505419,0.3072605218060437,26.043339754955063,3.1659215512534966,0.3525795070156239,56.159779645603166,3.2624475533897317
187.3479485,0.1244470833761266,0.3072094186950626,26.037087520182087,3.3327898717248954,0.3670595539874932,59.120004312376864,3.260022586175262
187.375895,0.1243045114273177,0.3071591482700307,26.03093806066792,3.290951725568148,0.3636551382780817,58.37801094106065,3.262254107803636
187.4042345,0.1241604694254215,0.3071081662577253,26.024702465745595,3.217237735173872,0.3574912005702019,57.0705701326909,3.262265634621087
187.4329055,0.1240137443118526,0.3070565831017366,26.01839427895302,3.195302829258509,0.3556911577989046,56.68163532215232,3.265171468866616
187.460955,0.123866175916,0.3070061134418114,26.01222317229169,3.3965187853378653,0.372966018941227,60.25119030214163,3.2631850392424324
187.489218,0.1237257095030049,0.306955254945129,26.00600543037473,3.1369990380461736,0.3508023201694084,55.64770627475309,3.26464500653986
187.5180645,0.1235758226647268,0.3069033415932231,25.99965966746181,3.226687530410857,0.3583672699827949,57.2388753338,3.261428029963116
187.546446,0.1234292375470371,0.3068522602664102,25.993416537092585,3.266536792270345,0.3617354163960822,57.9459401020312,3.260196486144157
187.574381,0.1232840039898018,0.3068019778848147,25.98727195197878,3.355927417879009,0.3694311794154567,59.53183592734917,3.261625708729381
187.6027165,0.1231418885720989,0.3067509698654771,25.98103960354563,3.155162457697709,0.3522688648910188,55.97056856100448,3.2643062678027612
187.631407,0.1229924097216505,0.3066993179102628,25.97472951114628,3.256956062954979,0.3606180749339821,57.77649405511687,3.2619461838860184
187.65988,0.122846516685715,0.3066480526510853,25.968467589324536,3.2255402381204354,0.3573123418934001,57.21936467517892,3.261551817287774
187.688292,0.122699149682053,0.3065968923695203,25.962219413333973,3.288679303531973,0.3620435592954708,58.33958996131184,3.262305377579072
187.716742,0.1225537601347171,0.3065456587927926,25.95596320975993,3.227134976016532,0.3563705164156507,57.24799211785924,3.257567643278482
187.7450585,0.1224058748226783,0.3064946607740534,25.94973668850524,3.335200788287464,0.3653300705942455,59.16520713367042,3.2591047650316525
187.77373,0.1222617376361485,0.3064430184539095,25.94343243541669,3.13522183638659,0.3481640075199835,55.6178212076761,3.260328759650505
187.802466,0.1221100614626597,0.3063912549502322,25.93711433087618,3.3202585889514484,0.3636832838254717,58.90048895812554,3.260230600736059
187.831061,0.1219651331580312,0.3063397404459141,25.930827554649905,3.176900561085992,0.3513835452603399,56.35752355839357,3.2627764648156936
187.8595415,0.1218147815992161,0.306288427253666,25.92456627457466,3.3567165214710504,0.3665768953448782,59.54759550406949,3.2599993290139584
187.8875525,0.1216709110349294,0.3062379551138825,25.91840852401543,3.3093498323741524,0.3625298081526933,58.70748895060717,3.2591380934705083
187.9156515,0.1215252840063205,0.3061873195705176,25.912231737994876,3.3313603556710945,0.3643836169939562,59.098125488540106,3.260315242494691
187.9438155,0.1213803808162863,0.3061365620178046,25.906040973419884,3.289012160159438,0.3609022138231158,58.34704171590216,3.261386769815177
187.97217,0.121233956801566,0.3060854561980252,25.899808646641524,3.272990600227711,0.3597067561593177,58.06299032369042,3.2548834339427035
188.001013,0.1210869572901298,0.3060334648067518,25.89346926683599,3.150144729783328,0.3494938777267775,55.88386678793684,3.2615315841662524
188.0297875,0.1209353473282482,0.3059815917471168,25.8871452619361,3.287822036680051,0.3614299314785658,58.32644955977343,3.2630376920741417
