T(K),Fc,X,m(mol/kg),cp(J/gK),cp_err(%),cpm(J/molK),cp_SMA_1K
181.8958075,0.8454114630774766,0.3169458379274872,27.24518506004429,4.156438279802369,0.4908168405600221,73.68926458949856,
181.924124,0.8453874402671065,0.3168955516573549,27.23885705204252,3.6609859179921926,0.4861632831785515,64.90560515492191,
181.95286,0.8453623976109987,0.3168445183019418,27.232435983527942,3.8080651493885895,0.4869030199588946,67.51337085338122,
181.981585,0.8453376301647718,0.3167935023429531,27.226018062625528,3.693743631824406,0.4832143800602165,65.48675169791197,
182.0101495,0.8453125883481221,0.3167427692989422,27.2196366834964,4.00018955335226,0.4881944349868351,70.91996957356088,
182.038313,0.8452880813598537,0.3166927463674986,27.21334555258685,4.112128231600392,0.4878765553712601,72.90475762656354,
182.066668,0.8452637174666352,0.316642381182232,27.20701230866316,3.881185314219524,0.4838759671395167,68.8105234196767,
182.0952135,0.8452388603921198,0.3165916754622678,27.20063718667721,3.959581735853992,0.4851799784264597,70.20063870571488,
182.1237855,0.8452141479965017,0.3165409204838489,27.19425681884826,3.854825022552482,0.4820757029862182,68.34357473122395,
182.152121,0.8451892267991381,0.3164905834471495,27.18792992603417,4.150841043705488,0.4867917937307178,73.59196238422665,
182.180323,0.8451649075344293,0.316440481404812,27.181633495109075,3.940052852950426,0.4861836054285674,69.85501385176566,
182.208781,0.8451402004780587,0.3163899223655214,27.175280568000083,3.902474928742796,0.4860035858520873,69.18897911234332,
182.2370705,0.8451154183449173,0.3163396604801934,27.168965910740926,4.091955388865512,0.4889030914511728,72.54858550412808,
182.2656155,0.8450909865515016,0.3162889424047381,27.16259488108835,3.704986147469361,0.4829575856983277,65.68798152675308,
182.294123,0.8450657416724302,0.3162382886946656,27.15623288013784,4.159281825022777,0.4872988392757559,73.74268469739651,
182.322451,0.8450413573243328,0.3161879516752274,27.149911588590157,3.885707475740372,0.4851919701120881,68.89250224773342,
182.3508515,0.8450164067192641,0.3161374835575271,27.143574768024653,4.099922208113714,0.4848017216176352,72.6906807168261,
182.379176,0.8449918782905905,0.3160871482147934,27.137255550340036,3.931619578891168,0.4841720554411654,69.70691590288118,3.896226605639163
182.407435,0.8449670419877325,0.3160369269907268,27.130951586330102,4.110316253363167,0.4886147153937583,72.87538708559637,3.8772338196117078
182.435713,0.8449426099352692,0.3159866697057376,27.1246440225016,3.846359415935954,0.486512885223796,68.19566327868483,3.888735099480041
182.464411,0.844917722421547,0.3159356636117107,27.11824342668098,3.671344789935525,0.4861572259979395,65.09285846038665,3.8877539496652154
182.4931205,0.8448925395177108,0.3158846346841421,27.11184092061923,3.775374789086856,0.4867787869259229,66.93750479946495,3.9065144674812067
182.5215705,0.8448676135108284,0.3158340646214054,27.10549692971317,3.8460063583596105,0.4882524240236853,68.19000330938218,3.902102123899686
182.549887,0.8448428652099973,0.3157837294927845,27.09918334242018,3.850883432526968,0.4897551256991426,68.2766722885163,3.8952533387689803
182.5779175,0.8448181541510195,0.3157339004194376,27.09293414506772,4.06790560370545,0.4919117598358949,72.12471118945678,3.9032822778562313
182.606337,0.8447938876416992,0.3156833774451115,27.086598852916868,3.507199409019879,0.4846912140492374,62.18346874904624,3.912992339438639
182.634909,0.8447684784614323,0.3156325809268727,27.08023020293114,3.931583259120588,0.4902144055480408,69.70809808923475,3.912054167052714
182.662901,0.8447439273332223,0.3155828131750933,27.07399145210009,3.9972454141220304,0.4911250774472184,70.8725101887526,3.901110829065549
182.6913625,0.8447195142553908,0.3155322082549369,27.06764868636537,3.5113273184365594,0.4863060689671742,62.25719992797266,3.908799830856949
182.7200685,0.844694123431768,0.3154811661131617,27.06125206974917,3.765612918985085,0.4905891286368573,66.76597898602682,3.9126774827787836
182.7482975,0.844669264148973,0.3154309696652913,27.054962366048937,3.9048537962451335,0.4917895631392907,69.23498147584151,3.911572425828753
182.776461,0.8446446899905494,0.315380887244225,27.04868786929392,3.806322883644767,0.490465278615433,67.488174641238,3.919703075803572
182.804377,0.8446199272323293,0.315331242523074,27.04246911501933,4.122850223835712,0.49405814207356,73.10058565309545,3.919337683252955
182.832438,0.8445957689355875,0.3152813374951669,27.03621866224732,3.701610252580197,0.487727576960251,65.63193927629771,3.9140390884459544
182.8607275,0.8445707338664484,0.3152310235975122,27.02991792206032,3.9571507923794,0.4904055898728096,70.16304144590846,3.908598252597336
182.88933,0.8445461570090513,0.3151801504578327,27.023548090091275,3.491690768841416,0.484590365918044,61.910292336507766,3.9128511311590177
182.9178945,0.8445205541184462,0.3151293423226238,27.017187341846697,4.063530713383886,0.4886071379513816,72.04965377816566,3.9025256005372952
182.946219,0.8444960256009786,0.3150789585161938,27.01088064787606,3.7737249058697,0.4856750352818546,66.91135900299159,3.9082236725038837
182.974314,0.8444708250980215,0.3150289804109153,27.00462565336562,4.350361755384087,0.4920524190192957,77.13584398676542,3.9105345409176437
183.002394,0.8444466816121488,0.3149790264529901,26.998374593058504,3.845757527999024,0.4822699460116127,68.18895148074267,3.912453873336775
183.031054,0.8444214889150766,0.314928038054085,26.991995026632654,3.872420752025708,0.4825324128073001,68.66191764384929,3.917324504221738
183.0593895,0.8443963078393679,0.3148776243419728,26.985688297439104,4.162198182273296,0.4875207057855292,73.80017755821896,3.9179379187425614
183.0872675,0.8443716669606902,0.3148280220408703,26.97948398113079,4.299433891238284,0.4888686772283066,76.23372979043282,3.9143601761623374
183.1155345,0.8443472721449106,0.3147777250003453,26.9731936831718,3.8219889890451055,0.4818977845993482,67.76829874390845,3.934322396076427
183.144385,0.8443219284604683,0.3147263869858988,26.96677415015033,3.767824214154708,0.4823104893157943,66.80809209687574,3.9245191232937517
183.1727625,0.8442964879977496,0.314675887956567,26.96046046588208,4.2091679156494255,0.4888134071434605,74.63386828061984,3.9278981069487795
183.200785,0.844271958268907,0.31462601802961,26.95422634875868,4.038192746007003,0.4876519567824343,71.60246815442206,3.931828522917498
183.2289375,0.8442471243536123,0.3145759140984808,26.947963892904163,4.053278395614437,0.486401185586808,71.87016407406284,3.9379922449878344
183.257109,0.8442223473016484,0.3145257736789756,26.941697792886625,3.9895588965880258,0.4873451029833687,70.74053469338793,3.9377670811188987
183.2851505,0.8441974614028246,0.3144758619678189,26.935461185152334,4.146493085751171,0.4892302404218521,73.52341180184072,3.9423356959450504
183.3135055,0.8441728952323297,0.3144253895292544,26.929155436406315,3.70025665749539,0.484896687563,65.61117543437014,3.9366799213036945
183.3421045,0.8441474375770177,0.3143744799800172,26.92279601795085,3.9094929534120375,0.4871974897491755,69.32145639819251,3.9413300715083373
183.3702415,0.8441224221618159,0.3143243901003483,26.916539911013484,4.080470328550034,0.4906665327553844,72.3533629085319,3.945235219285289
183.398539,0.8440977611752432,0.3142740117374767,26.910248695093955,3.748922681602889,0.4845421589662531,66.47467789603535,3.9575601984456292
183.4268555,0.8440724434961125,0.3142235967655226,26.903953832792705,4.045791934766563,0.4882764910116262,71.73887537064806,3.947277352121637
183.4551565,0.8440477303848202,0.314173206594421,26.89766299193496,3.752225184417115,0.4854597728949985,66.53362329131909,3.9587339549412524
183.4836905,0.8440224210467452,0.314122398721615,26.89132093998139,3.842551423756441,0.4871868310722977,68.13546758629313,3.945879300090796
183.511931,0.8439972771776123,0.3140721106326091,26.885044694788725,4.016478439333314,0.4904991142316518,71.21971819668028,3.9498757830920477
183.5401445,0.8439724679527155,0.3140218678030635,26.87877501720267,3.872352940755782,0.4861532075475169,68.66430078925634,3.9510964396089205
183.568457,0.8439473529435347,0.3139714458267279,26.872483907599968,3.942684613397613,0.4877509617054483,69.91162038976773,3.949919858649346
183.596411,0.8439223497230246,0.3139216594949656,26.86627301415451,4.205877106013052,0.4917422010128523,74.57875941160854,3.9388688599050568
183.624777,0.8438978508057868,0.3138711365185085,26.8599711450078,3.588468711726907,0.4837796073375858,63.63103750093922,3.9385966298881403
183.6532345,0.8438720987579729,0.3138204476528174,26.8536495166239,4.1155098420480245,0.4912396155450377,72.97678955670075,3.9392774145755296
183.6816085,0.843847419027367,0.3137699045951347,26.847347002466663,3.648891877341705,0.481926036825961,64.70284373549701,3.929268303493254
183.710116,0.8438217954409993,0.3137191207782941,26.84101540159546,3.981343191446861,0.4901645200315633,70.59814016902982,3.928739240828221
183.7383295,0.8437968600803252,0.3136688577703631,26.834749656518827,3.896973060832386,0.4882898381558434,69.1022687557069,3.918259431776522
183.7665695,0.843771738711081,0.3136185446211331,26.828478579911025,3.966224402560081,0.4888449209401247,70.33045775252488,3.916145003531576
183.794798,0.8437467374039084,0.3135682490165742,26.822210608903998,3.92489811138822,0.4868369744162835,69.59784742617462,3.906777115778814
183.8231835,0.8437216173913183,0.3135176706984849,26.81590833160354,3.864365509742721,0.484466451062865,68.52465907910243,3.9153006017214222
183.851424,0.8436963181215721,0.3134673477659905,26.809638798036243,4.093830964572691,0.4889901451144744,72.59385374767524,3.9182984184238827
183.879626,0.8436714366576787,0.3134170904577668,26.80337835758625,3.9230650394533457,0.4870650249803701,69.56594860115986,3.9096111649442027
183.9082855,0.8436461865946139,0.3133660147975258,26.797016915812023,3.703631092044148,0.4829569546648816,65.67501835474054,3.9036811923509633
183.936667,0.8436204723333104,0.3133154315174005,26.790717732364516,4.174706004556236,0.4892019938057134,74.02861834984759,3.905364335768467
183.9648235,0.8435956974693789,0.3132652462248884,26.78446902773201,3.900448835618093,0.4843175255427394,69.16551079835449,3.908382193239153
183.993197,0.843570364056885,0.3132146711002533,26.778172707950308,3.9856344330428577,0.4863178006264788,70.6762878846828,3.9113911350745947
184.021559,0.8435451838506468,0.3131641133926799,26.77187948327467,3.915143730116261,0.4855932379947352,69.42649561716804,3.907490397202777
184.0497535,0.8435198514682414,0.3131138512011822,26.76562396158721,4.12101784868819,0.4891210755234323,73.0774336679521,3.9062932549892952
184.0779175,0.8434949504562704,0.3130636403153859,26.75937573930912,3.912648935188142,0.4857695558179444,69.38265758124578,3.9098256235105997
184.106394,0.8434696530869574,0.3130128691737073,26.753058727706595,3.8124609384530186,0.4863706059166442,67.60623047720111,3.8978521891324185
184.1349775,0.8434441756250077,0.312961904081657,26.746718523539208,3.791651678213352,0.485363142065931,67.23741808049348,3.9107577256375463
184.1634925,0.8434186677515584,0.3129110579397713,26.74039405439867,3.858849027769791,0.4869634091853454,68.42923020842191,3.9060953372072924
184.1917405,0.8433932927684049,0.3128606847430676,26.734129335245093,4.019675552730851,0.4880076462589472,71.28138472634714,3.9242094833553347
184.2201715,0.8433682419095012,0.3128099820302017,26.727824562923168,3.686485078804973,0.4859642064218694,65.37306940797345,3.916352000143073
184.24869,0.843342520472924,0.3127591200527618,26.721500921081944,3.915553908014891,0.4881021542992113,69.43538956657491,3.9136072996466322
184.277018,0.8433172938178671,0.3127085946199884,26.71522004832948,3.818617014404529,0.4887579611398826,67.7165831846284,3.9211600526304804
184.30522,0.8432918929572797,0.312658290730652,26.708967633218283,3.9985786654866473,0.4892093938579991,70.90809804618856,3.9284667616904367
184.3331815,0.8432668721446965,0.3126084126670341,26.702769048737512,4.014416537998172,0.4912120172265474,71.18916079512384,3.9265849889263125
184.3613915,0.8432418820182682,0.3125580881303084,26.69651589052049,3.7764164567612406,0.4878482534221269,66.96880988364214,3.9276335261572157
184.390158,0.843216397265335,0.3125067675196706,26.69013990632049,3.54137364083951,0.4847181967654478,62.800880703875485,3.9246574531977623
184.418581,0.843190391341663,0.3124560564212032,26.68384058182209,4.104701954379167,0.4914431466960587,72.7908651066837,3.933675914702583
184.4466805,0.8431655018251493,0.3124059192539688,26.67761346442397,3.857850195891142,0.4864116890660029,68.41350908743009,3.9344675544069023
184.475016,0.8431400553530042,0.3123553577191154,26.671334559497744,3.947864387996892,0.4859419883051188,70.00998725276052,3.919794338998766
184.5033895,0.8431147235516515,0.3123047250642897,26.665047747888188,3.879952613819717,0.486534872935735,68.80586535219496,3.926857072721077
184.531954,0.8430891891163131,0.3122537482062034,26.658719133371243,3.83045296328389,0.4838832432450484,67.928253562625,3.9256468276833916
184.5603585,0.8430634948674298,0.3122030535282492,26.652426480948776,4.066317511643264,0.4856897763056615,72.11122456542932,3.9269591529725916
184.5888585,0.8430382275301841,0.3121521850267395,26.64611318439404,3.7868069027767257,0.4816171082582011,67.1546386964039,3.9231993006278345
184.617415,0.8430123416994458,0.3121012122702754,26.63978788532225,4.040162489406401,0.4863896439481368,71.64781729452973,3.9309321760513725
184.6457925,0.8429869530174691,0.3120505556296241,26.633502742246915,3.9523262469891214,0.4861446310360957,70.09034317213215,3.9383741939342882
184.6739105,0.8429613684426523,0.312000358870184,26.627275571180707,4.282886992523189,0.4861235951272042,75.95270950228,3.9376094844097405
184.7023145,0.8429364263516486,0.3119496481372508,26.620985561619264,3.706331279017688,0.4809575991865045,65.72826366098441,3.9429257366633106
184.7312415,0.8429103075568692,0.3118980001452527,26.61458025017609,3.800908543456972,0.4832051786795382,67.40570217201982,3.949140144383788
184.759539,0.8428844049468079,0.311847472642086,26.60831483059936,4.230570756994733,0.4883856448638303,75.02559438046703,3.962036618602783
184.787371,0.8428593982003731,0.3117977729780198,26.60215296074368,4.180632928486716,0.489069056912905,74.1402015322433,3.958316554917239
184.8156685,0.842834313401299,0.3117472386509751,26.595888520057493,3.7985034629983554,0.4848831287663517,67.36363538057081,3.9625486289934333
184.8440155,0.8428084488967487,0.3116966124562257,26.58961361344086,4.1305297676543065,0.4866223058345765,73.25208876071247,3.9642887670609452
184.8723435,0.8427832551953605,0.311646016711892,26.583343403192146,3.8189024858725,0.4812968649044552,67.72579187172082,3.9695509812355794
184.9008125,0.8427574045662085,0.3115951656108425,26.57704247586663,4.019277244712869,0.4873388386304544,71.27951884023058,3.976372353030365
184.9288655,0.8427319367473349,0.3115450540995044,26.570834101226,4.2024133942074124,0.4904526008762165,74.52754595854097,3.976480980149948
184.9576705,0.8427068161092847,0.3114935956847278,26.56445979760864,3.386886296333324,0.4778177332841899,60.06478868391051,3.9771956611222685
184.986426,0.8426799712129843,0.3114422220524301,26.558096946639942,4.232830113323746,0.4856418971895067,75.06741490579675,3.9738348375160286
185.0145825,0.8426549197682477,0.3113919150301075,26.551867120060628,3.872785153797257,0.4850975834604114,68.68237204204523,3.976007609746377
185.042815,0.8426291352439714,0.3113414686850066,26.54562095426024,4.166949233810204,0.4870766262265183,73.8994749324808,3.975546131104884
185.071162,0.8426039267729852,0.3112908141753199,26.539349934641947,3.781054103121633,0.484878380489389,67.05594734109016,3.9726778648417733
185.099612,0.8425779149253221,0.3112399719960799,26.53305660909549,4.083111578276863,0.4870797033629885,72.4130651268113,3.974585752700975
185.1277755,0.8425525002021148,0.3111896382330156,26.526827131260827,4.0521223041153895,0.4847270646738893,71.86368572710981,3.9689518741994783
185.1562485,0.8425269859242565,0.3111387476978775,26.520529670931733,3.832084194410614,0.4827315237934649,67.96154731220858,3.960244116801505
185.1845575,0.8425009910163614,0.3110881466481788,26.514268955515657,4.205744381605812,0.4880477813794925,74.58858275979975,3.957968661891993
185.212771,0.8424757532796647,0.3110377126797538,26.50802982765266,3.903989349021675,0.4843103622315458,69.23717952597235,3.956303138750925
185.240794,0.8424499106818217,0.3109876156546814,26.50183328690582,4.366930505679761,0.4885697997229534,77.44765599078049,3.971498612336033
185.269053,0.842424998106798,0.310937093092156,26.4955850236225,3.6884147854104463,0.4810531562720744,65.4143478101855,3.94722458355646
185.2975335,0.8423987073585295,0.3108861708136056,26.489288253454383,4.146701258153443,0.4884783384388612,73.5423128822879,3.9472168160405885
185.325549,0.842373373309082,0.3108360762945082,26.48309474745781,4.075321370361092,0.4881006264323494,72.27658942993656,3.95454274546848
185.3537545,0.842347905020311,0.3107856383696571,26.47685969362069,3.9605939528734337,0.4860365367143133,70.24208126577147,3.9471626375537134
185.3822805,0.8423222061476053,0.3107346235614149,26.470554254633605,3.780121653657016,0.4828906544275512,67.0415589100703,3.9506201179647324
185.410616,0.8422961357095864,0.3106839456834308,26.464291384362195,4.108503903564588,0.4871890893460008,72.86572653941677,3.945953524198772
185.438799,0.8422707621308871,0.3106335368274693,26.45806267384748,3.8828640299223496,0.4850958584327152,68.86412595099861,3.9328908068547395
185.467261,0.8422449479033384,0.3105826251625897,26.451772758880917,3.830235561778487,0.4877639051717004,67.93093855328266,3.951409162870052
185.4956005,0.8422190469517569,0.310531928830895,26.44551037042774,3.955999641881917,0.4889650775857526,70.16162561617436,3.9382087963967716
185.5239165,0.8421934346812427,0.3104812707477406,26.439253626551785,3.814301210831641,0.4868320883318819,67.6487307458522,3.9408028105601645
185.552195,0.8421675556796848,0.31043067595831,26.433005617599463,3.965928192434408,0.4879417621508547,70.33812372502351,3.9333458240508468
185.580428,0.8421419910865373,0.3103801587792095,26.42676810751341,3.853582977848741,0.4863181012999069,68.34581263578977,3.9315899550415923
185.6088055,0.8421161741508456,0.3103293792108291,26.42049912032842,3.84297674185404,0.4885214172684475,68.15790350753305,3.9301967064818712
185.6374195,0.8420903258645303,0.3102781725342807,26.41417833930714,3.6475547380600513,0.4843750992489088,64.69214726262656,3.9349683567335254
185.6656215,0.8420640571674298,0.3102276993062541,26.40794901112601,4.203246070690259,0.4916837203955012,74.54797090562163,3.932408523089555
185.6938045,0.8420389388462591,0.3101772562478921,26.40172431720132,3.64803796908033,0.4854553086927778,64.70109390298288,3.9290000917535703
185.7218385,0.8420126836973514,0.3101270760594703,26.39553296472208,4.332750118935736,0.4944160523357362,76.84527549330133,3.9276700184292217
185.7502045,0.8419878170174487,0.3100762977116676,26.389268726696347,3.380979749709708,0.483669657897061,59.96493525743258,3.913088484860761
185.77875,0.8419609349527325,0.3100251940775333,26.382965290838328,4.180361065431208,0.491034040969444,74.1429518153284,3.9155579549596453
185.806517,0.8419357204055342,0.3099754803289391,26.376834187920267,4.054910992974548,0.4886629497130814,71.91817327020884,3.913391782682754
185.834635,0.8419102383658835,0.3099251342960202,26.37062600687525,3.872225990637469,0.4890685672883295,68.67825902011548,3.907815015286637
185.8628865,0.8418843624330339,0.3098745453050645,26.36438877898388,3.939914300258154,0.4879222784987241,69.87899056184612,3.8966200367141166
185.8911575,0.8418586158482143,0.3098239174467139,26.358147674461044,3.85594646290426,0.4867599437511758,68.3899221821547,3.8977593679121134
185.9196575,0.841832683312487,0.3097728754814537,26.35185644810307,3.745218287166256,0.4868016171532425,66.42621801500273,3.892025313625981
