T(K),Fc,X,m(mol/kg),cp(J/gK),cp_err(%),cpm(J/molK)
175.134318,0.5622484398740074,0.32892747062739613,28.77998314969911,2.121397522894479,0.9447832033680624,37.584167546822
175.16379799999999,0.5621785923321636,0.32887519422122685,28.773167726594206,2.19145290322282,0.9381740755882152,38.825434896044854
175.1931405,0.5621092631099663,0.3288231633031805,28.766385362679348,2.2373433062579773,0.9197587811442679,39.63858288724184
175.2225785,0.5620400251350326,0.3287709646890429,28.759582195718774,2.2423484697397926,0.9205997479062176,39.72737800923666
175.2526845,0.5619702051420227,0.32871758328338874,28.752625967040153,2.128119803174261,0.927824640082249,37.70372058541705
175.2825535,0.5618977702170914,0.3286646237721339,28.74572580936537,2.4062661948442248,0.9065278540864233,42.63174715895474
175.31174700000003,0.561829029775604,0.32861286354737007,28.738982960034388,2.426629745938062,0.8850678521909693,42.992655933747834
175.34126500000002,0.5617597472432556,0.32856052955667686,28.732166422659944,2.4208735886807617,0.8881375985450617,42.89080341696868
175.3709245,0.5616894325229475,0.32850794626873325,28.725318484274855,2.5085968341646776,0.872727367916401,44.445137684731044
175.4006755,0.561619440407791,0.3284552023279358,28.71845070135125,2.5292904545169974,0.8715990568215395,44.811905571665896
175.4302315,0.5615486517275691,0.3284028056275273,28.711629200656265,2.7244625257302943,0.8540887405037568,48.269951026434335
175.459883,0.5614795420281903,0.3283502411441166,28.704786925809245,2.6632239531225057,0.8464476422491186,47.18511570274783
175.4893135,0.5614082599456335,0.32829806992247795,28.697996900423927,2.985646329739788,0.8415033213978518,52.8977261679817
175.51864849999998,0.5613401569100335,0.328246069447338,28.6912301470135,2.892114089188992,0.82470089355116,51.24073686035019
175.548186,0.5612692860592259,0.328193711460537,28.68441792945605,3.1428391185130966,0.8174363570265989,55.68310017510581
175.5776925,0.5612001837218086,0.3281414098567075,28.677614107839485,3.1540978056137865,0.8014132131602758,55.88274398022794
175.6076835,0.5611294185087191,0.3280882509028243,28.670699840501616,3.251896694487018,0.7894287313791616,57.6156729292746
175.63741950000002,0.5610579778532563,0.328035545357822,28.663845627067953,3.561458203538537,0.7856221181349593,63.10053916230099
175.6670215,0.5609883804266692,0.3279830787086223,28.65702354922464,3.6454693951645276,0.7701237745555446,64.58921240185477
175.6966235,0.560917533572925,0.32793061342514535,28.650202714083015,3.954868764411898,0.7699661039497142,70.07125937887511
175.726111,0.5608478952249101,0.3278783524156515,28.643409494562253,4.124332295495162,0.7544764226348113,73.07398709799607
175.7558195,0.5607775503736245,0.3278257010584295,28.636566603351877,4.348940348389513,0.7422835742499446,77.05377576450924
175.785147,0.5607068213784528,0.3277737262283297,28.629812689080424,4.853524589149895,0.7511202189529077,85.99417016216836
175.814528,0.560638245130035,0.3277216578551198,28.623047666399728,4.944186005613586,0.7251994605648296,87.600761380645
175.8442635,0.5605672204361785,0.32766896252106326,28.616202252187634,5.394305661126889,0.724055049245967,95.57624218512741
175.873999,0.5604969185377491,0.32761626845224956,28.60935807526178,5.732167317791027,0.7123423170637976,101.56277955020299
175.90374200000002,0.5604258515541485,0.32756356233959044,28.602513407046164,6.282057895167933,0.7102633343686131,111.30610204979027
175.9333095,0.5603554720620629,0.327511168439227,28.595710347597848,6.81537491873315,0.7079083242825026,120.75582890133502
175.9627055,0.5602851977488602,0.32745907962340826,28.588947952434037,7.468069254697023,0.7089822399514752,132.32076193804085
175.9920675,0.560215592736323,0.327407052215757,28.58219457511686,7.987966659921971,0.7006846824384133,141.53283399865893
176.0217535,0.5601454387191407,0.32735445186415313,28.575367889287353,8.455906555739778,0.6883947282202185,149.824367099199
176.05127149999998,0.5600742493973107,0.3273021503296354,28.568581043664494,9.39639057345452,0.7024592022449424,166.48865590171835
176.08086250000002,0.5600048537144228,0.32724972057186263,28.561778618446866,9.732635217742988,0.6810773486843507,172.4468818564479
176.1105865,0.5599332740351106,0.32719705627512313,28.55494683061538,10.734198500859817,0.6923346930056508,190.19357462567714
176.14018049999999,0.5598632027858765,0.32714462339840483,28.548146125766536,11.345378959828027,0.6825310251471343,201.023365120807
176.169596,0.5597921998840459,0.32709250783587906,28.541387627760205,12.522541171554366,0.697523256339141,221.88160842471595
176.19884000000002,0.559722937970114,0.3270406971488629,28.53466970451888,13.179693028344918,0.6876638502809013,233.5261018531901
176.22816699999998,0.5596527109019402,0.32698874042507503,28.527933884442433,14.190751581687142,0.6917839057098034,251.44142746001933
176.257502,0.5595830116478941,0.3269367705239474,28.521197396348573,14.965410171543256,0.6853089901444012,265.16815207919666
176.287169,0.5595127044306947,0.3268842134460497,28.5143858546293,15.654846809124814,0.6752057931069112,277.3849385641184
176.3169995,0.5594413779896256,0.32683136770684806,28.507537974001274,16.67242763418197,0.6767092292500417,295.4161394909657
176.3461935,0.5593702471296231,0.32677965049199764,28.50083737121239,18.4836695152783,0.703281254196472,327.5102280634084
176.37548299999997,0.5593019186533466,0.3267277650184545,28.494116002874378,18.555886350422366,0.6714086290983066,328.79081446429535
176.405295,0.5592302887907517,0.3266749548795038,28.48727591490167,19.842807000237688,0.6782571710202268,351.59476730422915
176.43503049999998,0.5591594210442044,0.3266222811694916,28.480454566235796,20.800724646512858,0.6739517722398705,368.56923299762315
176.46434649999998,0.5590881132232153,0.3265703514406592,28.473730609181242,22.768659921373562,0.6968756419799044,403.44039914607947
176.4934525,0.5590192091439705,0.32651879454360855,28.467055952853723,23.432566673481745,0.6827530371267797,415.20547063911556
176.5230465,0.5589488632851588,0.3264663740706501,28.460270543972342,24.28162026174295,0.6739679590793336,430.2512902487711
176.55274400000002,0.5588775817589472,0.3264137711018591,28.45346257411502,25.64592418414655,0.6776488149235924,454.427065499607
176.5819305,0.5588066973176558,0.3263620740618011,28.44677288709802,27.725954991958226,0.697242704585314,491.2851584384557
176.6112505,0.5587378197664029,0.32631014133675096,28.44005373575927,27.839420362967207,0.6712150016228655,493.29716531798584
176.6410965,0.5586662528548423,0.32625727772370133,28.43321520827598,29.143430851030715,0.6725215773657022,516.4049920646979
176.670584,0.5585948123674341,0.326205049848775,28.426459974739675,31.128333050736835,0.687293045156927,551.5779894801444
176.699721,0.5585249199635536,0.3261534434977004,28.41978615859149,32.47258276682219,0.6882929698783166,575.3991127100117
176.7289605,0.558455116690667,0.3261016563073765,28.413089983546463,33.46198884976034,0.6823908681653583,592.9327005019858
176.758307,0.5583846902091048,0.3260496802977521,28.406370428552908,34.7954371417221,0.6831492531216448,616.5627045790035
176.7878445,0.5583143309653211,0.3259973666880076,28.39960827447121,35.541085029107606,0.6734656113123666,629.7772183419439
176.8175415,0.5582429445374982,0.32594477126164384,28.392810750373435,36.937377523766116,0.675648959185231,654.5210818105738
176.8467925,0.5581717760256916,0.32589296637337917,28.386116433713184,39.31933091089112,0.6940438357147974,696.7307808059456
176.875979,0.5581024875498143,0.3258412763347499,28.379437983534203,39.673017932730794,0.6784747671140452,703.0001404085264
176.905516,0.5580315853793493,0.32578896616159814,28.372680453350444,40.907388943185126,0.6775377093678558,724.8752027256044
176.9349195,0.5579605699540418,0.32573689300940334,28.36595458339582,42.66236412804238,0.6845258604534815,755.9754730017378
176.96425449999998,0.5578902656772453,0.3256849417405135,28.359245491276518,43.70459569619233,0.6805743272350697,774.4460968353861
176.993506,0.557819535820053,0.3256331388975942,28.352556596460072,45.5373285140268,0.6883448505125251,806.924560478771
177.022475,0.5577495898587838,0.32558183687171094,28.34593338092983,47.21001545282428,0.6937789120269804,836.5671616434865
177.051638,0.5576801758639286,0.32553019179601045,28.339266894527665,47.401055464086674,0.6792467129950773,839.9549150575576
177.0809425,0.557609253340944,0.3254782966349258,28.3325691546984,49.1609026970149,0.6870004591885409,871.1423197480261
177.11011,0.5575391152773485,0.32542664456536397,28.325903812254637,50.19453472713358,0.685557234704271,889.4611623797697
177.13950599999998,0.5574688087013542,0.3253745883164968,28.319187345928828,50.57848148670104,0.6763691075307763,896.267496425215
177.16886,0.5573975264128004,0.32532260689345727,28.31248156808882,52.51171278667244,0.6874744866372602,930.5277865079825
177.198073,0.557327378470366,0.3252708755885979,28.305809082119197,53.16207506247084,0.6828092320158731,942.0552667555569
177.22741150000002,0.557256731568382,0.3252189224576587,28.29910901390684,54.0422860965082,0.6815889106491123,957.6558608772667
177.2567655,0.5571859348659705,0.32516694227623943,28.292406489601724,55.0292139654981,0.6820727043604365,975.1476303842638
177.285864,0.5571151691133754,0.3251154149103158,28.285763372082506,56.921317334032345,0.6935823927158942,1008.6797291156134
177.314909,0.5570455611032634,0.3250639826372504,28.27913352584038,57.0260602989277,0.6845267593052341,1010.5388339112083
177.344229,0.5569750097034127,0.3250120637431882,28.272441976748485,57.52747431642087,0.6806213358540409,1019.4272679053103
177.373469,0.5569040306791689,0.3249602868368149,28.26576975279878,59.01438817813237,0.6882655363516827,1045.7795485436081
177.4022435,0.5568338214842616,0.32490933451890813,28.259204788478154,61.10481144338783,0.7027758314830509,1082.8266095882582
177.431666,0.5567650471678056,0.32485723505015063,28.25249304383244,57.86409299193268,0.658949388774411,1025.401541696893
177.46121449999998,0.5566916628358776,0.3248049127487522,28.245753635080185,62.02648383981501,0.6966187963828658,1099.1660069462662
177.490069,0.5566222359570128,0.3247538195853284,28.239173554168882,62.133752486867515,0.6903955729984053,1101.0701492685353
177.5190645,0.5565521613766188,0.32470247698698823,28.23256235255238,62.7217455125741,0.6898656087864383,1111.493244506908
177.5482585,0.5564820093214161,0.32465078312535384,28.225906935582046,62.4867590401571,0.6810825325462301,1107.3323453621856
177.5776315,0.5564109304299282,0.32459877251637975,28.219211766586863,63.08099955304094,0.6814519823161135,1117.8662765795905
177.6069585,0.5563398677521054,0.3245468435506196,28.212528135920355,63.78060473371538,0.6832070407091206,1130.2674516827155
177.635828,0.5562689665582683,0.324495724844637,28.205949795177748,66.23838400134814,0.7033065696846088,1173.8256554915295
177.664606,0.5562000748852931,0.32444476830766616,28.1993933143898,65.16711041805286,0.687484676642605,1154.8447627228686
177.69406700000002,0.5561295727658889,0.3243926025383658,28.192682268482244,63.987376745872915,0.6711239172132374,1133.941779955244
177.723612,0.5560573278005034,0.32434028815753035,28.185953144643605,65.60731684486325,0.6835347171165067,1162.6527891923365
177.752825,0.5559863733898692,0.3242885617443467,28.179300674694783,66.25232672366141,0.6863898013154304,1174.0867619274316
177.78171400000002,0.5559156922725934,0.32423740911339294,28.17272299971499,67.83908230955237,0.6989677837339536,1202.2099047246013
177.81055700000002,0.5558462646854302,0.32418633800290886,28.166156800740858,67.07793761941022,0.6885526947799094,1188.7247839271886
177.83978100000002,0.5557757623809612,0.3241345923262484,28.159504885058535,66.5470427978626,0.68087961955197,1179.3200253042373
177.86895950000002,0.5557044416158051,0.3240829272528237,28.15286434704906,67.75449032603024,0.6907052559858647,1200.721503394781
177.89839,0.5556341153313052,0.32403081599601513,28.146167489138413,65.78235938336321,0.6694146688747185,1165.775587734202
177.927477,0.5555615250116328,0.3239793129639361,28.13954980911128,69.8492250303631,0.7074579654577681,1237.851058145925
177.95622450000002,0.5554928226049082,0.3239284110575499,28.13301035905561,67.77778335713522,0.6849414463513922,1201.1449954590512
177.9856665,0.5554218362889202,0.32387627940257524,28.126313941827615,66.96307745396726,0.6743847670266556,1186.7104992758905
178.0149675,0.5553497137888004,0.32382439736447793,28.1196506135496,69.04886779190197,0.691598596729432,1223.6782508378049
178.04402,0.5552793674276417,0.32377295527322825,28.113044798136894,68.80870431321286,0.6858430038928187,1219.425710615099
178.0733665,0.5552084075674106,0.32372099252900755,28.10637314456423,68.34453263959158,0.6778400776859663,1211.2033034893068
178.102435,0.5551365853911947,0.32366952193407966,28.099765690178018,70.93280275791577,0.699153508127057,1257.0764137273961
178.13158650000003,0.5550669331367191,0.3236179042625291,28.09314036499649,68.62586732984633,0.67405223813678,1216.1963517746428
178.16045200000002,0.5549946607343564,0.32356679287631446,28.086581019781242,73.03124693663662,0.7133675913616623,1294.272863744215
178.1891005,0.5549263569611705,0.3235160655863322,28.080071947327312,70.1025618067716,0.6840385654020904,1242.373813953402
178.21863,0.554855095958352,0.3234637781657852,28.073363708317217,68.81372415242116,0.6712715597047164,1219.5364114857814
178.247973,0.5547824542774169,0.32341182079756087,28.066698840566293,71.04529169345173,0.6928548365114211,1259.0886585980968
178.27694200000002,0.5547120561247227,0.32336052547477234,28.060119901231843,70.40161304366197,0.6885169067776128,1247.6848581301308
178.30596400000002,0.554641191543194,0.32330913609667566,28.053529898882097,70.25761574884373,0.6903269145053683,1245.1365710854225
178.33531399999998,0.5545704895237487,0.323257165698906,28.046866406387448,67.98233447246932,0.6733599873601628,1204.8166390720787
178.3647595,0.5544979782603807,0.3232050259502025,28.040182228584232,68.58910897396355,0.6858262753134795,1215.5738518238788
178.3940795,0.5544267637921098,0.3231531081633626,28.033527528946475,66.9996334962853,0.6790947156205139,1187.407848923748
178.42335350000002,0.5543548179627648,0.3231012715510075,28.02688425249425,66.76503037633584,0.6880108796853178,1183.2536074848076
178.4526655,0.5542837816963462,0.3230493673544991,28.0202333339833,64.2819093375831,0.67738311392884,1139.2495189285391
178.48165749999998,0.5542116031368716,0.3229980294899179,28.01365598750671,65.03262174859603,0.7034816774688373,1152.5575873165283
178.51065699999998,0.5541420848405442,0.32294667802223853,28.007077896074094,60.40864712360367,0.6770889922145864,1070.6111616529167
178.539965,0.5540698227909553,0.3228947799277199,28.00043079582869,58.96859236268909,0.6886483407815243,1045.092467367307
178.569647,0.5539987500956441,0.3228422191910449,27.993699862952802,53.65283326945086,0.6604951955993802,950.8848621734085
178.5991615,0.5539246102500781,0.3227899546768214,27.987007900360233,53.446108355033566,0.6967686477528245,947.2239473198963
178.6283785,0.5538543101976263,0.3227382165824887,27.98038435800318,48.39390545472301,0.6738078719132312,857.6864489853745
178.65783950000002,0.5537815780769222,0.3226860459924887,27.97370647191825,46.12030042603759,0.6852827686949938,817.3937463197262
178.68699900000001,0.5537100365286824,0.3226344088824127,27.967097884715745,43.34145687679635,0.6879034781112657,768.1463682779154
178.7168145,0.5536387336033187,0.3225816096381773,27.96034160777486,38.594534134641265,0.6561784941425398,684.018111346076
178.7469505,0.5535639293109106,0.32252824234496874,27.953513712532445,37.14707789351183,0.6733765058772532,658.3666006527852
178.77652949999998,0.5534910067717425,0.3224758609399209,27.946812999386278,35.23582714000559,0.6811768263692847,624.494929559684
178.80633749999998,0.5534188838024254,0.32242307348770743,27.94006139213796,32.1183997896986,0.6635568922782527,569.245580000539
178.83605799999998,0.5533447887623135,0.32237044046222363,27.93333058362901,31.195679785683858,0.6855531096882477,552.8935698842441
178.8654275,0.5532730465976239,0.32231842849919634,27.926680224815556,28.995112875343015,0.6795922685074876,513.8935791289432
178.89496450000001,0.5532006251225806,0.32226611934839056,27.9199928964633,27.164724561787814,0.6782596241454714,481.45422610733203
178.924723,0.5531280123783172,0.3222134173493627,27.913256389309634,25.18083139946055,0.6702405835644251,446.2940348333983
178.9546535,0.5530544539281235,0.322160410137216,27.90648192566167,23.704937177453306,0.6710660107140337,420.1372155219864
178.984534,0.5529809465917804,0.32210749085501517,27.899719756508055,22.36550370524101,0.672939088174346,396.3988197108627
179.0142085,0.5529075838316316,0.32205493577428024,27.89300517081832,21.335067918404693,0.681103350265531,378.13686099553973
179.04408899999999,0.5528350396303368,0.32200201520429184,27.886244941035955,19.55317703423039,0.6647483880588345,346.556175614377
179.0740915,0.5527606135876473,0.3219488778869795,27.87945808504815,18.79185499102104,0.6763411388914903,333.0636927916451
179.1040025,0.5526874193585833,0.32189590193289236,27.872692897668284,17.5188714168986,0.6698212054535078,310.5024932858383
179.1338755,0.5526133927290224,0.32184299257421645,27.865937269688427,16.80187379128454,0.6790403167945042,297.79541691300807
179.163367,0.5525403355034352,0.3217907581964869,27.85926885930393,16.102869071750842,0.6877019435335592,285.4071580838054
179.193087,0.5524681378035742,0.32173811837623795,27.852549727896104,14.761813413406964,0.6706285055626766,261.63908936814494
179.22290249999998,0.5523939049023241,0.3216853086528785,27.84580995737407,14.315016333810824,0.6847679423189996,253.720808939547
179.2528135,0.5523211870279778,0.3216323290018472,27.83904955448822,13.140333578433456,0.667816345303287,232.90132336923003
179.28275150000002,0.5522464321772209,0.3215793007311398,27.83228400487778,12.83388189416841,0.6854215651816835,227.47042127916959
179.31239549999998,0.5521735309785498,0.32152679241183874,27.82558583471985,12.09642427104748,0.6825498600649267,214.40021631084093
179.342146,0.5521001755359907,0.32147409463016785,27.818864538293248,11.472336587179692,0.6827542027738647,203.3393392367965
179.37179,0.5520266986291498,0.32142158466126663,27.812168234661492,11.020495815099997,0.6889974918833427,195.33136111221054
179.4016135,0.5519538187244063,0.3213687558782085,27.8054323201644,10.235527297072508,0.6777491025595882,181.4188400602968
179.4315895,0.5518794045803956,0.32131565607665946,27.79866290628497,9.876293494235965,0.6855518183394382,175.05216318066016
179.4612715,0.5518057206233722,0.32126307618058036,27.791960816095653,9.533323525281702,0.6922493960620081,168.97371112969415
179.4907555,0.5517327082728246,0.3212108461369663,27.785304347774535,9.150679740695226,0.6964637576080769,162.19201695329292
179.5205215,0.5516599527746918,0.3211581156191619,27.778585135486207,8.507313799260109,0.6842277317095103,150.78907988199285
179.55068799999998,0.5515854952249571,0.3211046746550271,27.771776459188985,8.101124869364776,0.6834530087972234,143.58996943852304
179.580439,0.5515107072123445,0.3210519687994045,27.765062489634985,8.08791554445256,0.7045464135466364,143.35627375350654
179.6099115,0.5514382544106429,0.32099975536455644,27.758412275171917,7.633284179515314,0.6986813373535653,135.2984541263788
179.639811,0.551364793790464,0.3209467844635318,27.75166663035133,7.190266076133521,0.6907138250363715,127.4464349401217
179.669577,0.5512901756657914,0.32089404906426433,27.74495202111873,7.134941786710767,0.7084077834970695,126.4662043115136
179.699183,0.5512173253312925,0.3208415961139943,27.73827440949547,6.740001035724641,0.7018308553973711,119.46627610297351
179.7289795,0.551143448470111,0.3207888046133995,27.731554739530953,6.495317586280385,0.704978033950657,115.12962112893815
179.7589475,0.5510696028406247,0.32073570818928004,27.724797310330132,6.162741228667047,0.7004585639310638,109.23503355695912
