T(K),Fc,X,m(mol/kg),cp(J/gK),cp_err(%),cpm(J/molK),cp_SMA_1K,std,std_%
184.0,0.3555534750788155,0.31320254444824397,26.612872199651527,3.2075814091314934,0.7119063678358757,56.88364899696904,3.2095466947977584,0.0636073270992936,1.9830307944239007
185.0,0.353668084647942,0.3114179699198057,26.501447134139198,3.2100481998920283,0.7123954272115934,56.930363480064564,3.2113739206254506,0.06118798041799072,1.9061389925562118
186.0,0.3508300257500469,0.30962896458586003,26.33437636202898,3.2132351444790728,0.7130117303006116,56.99132840489077,3.2133376123724973,0.06276205640049562,1.953235713493684
187.0,0.347013207288906,0.30783493519741156,26.112019504652714,3.2169110340923686,0.713494889576025,57.06247354054418,3.2176152366787574,0.06242732708198953,1.9405984940333612
188.0,0.3431992493328929,0.3060352908928012,25.893507250671302,3.2290714077877776,0.7138993400732245,57.28411387923879,3.2277116905112715,0.07054866730933916,2.1847973736100106
189.0,0.3393267239744173,0.3042294416247227,25.675443433678012,3.231542288453373,0.7138753100567972,57.333845641973774,3.2313823028391875,0.06851373805521654,2.1201560103367068
190.0,0.3353347086526934,0.30241679664133225,25.45442041801735,3.228192636289125,0.7140198046324194,57.280405247300415,3.228967101309467,0.07071364268286201,2.19050257063187
191.0,0.3313380766434013,0.3005967630098679,25.236876391173126,3.2286773046841497,0.7141015152499074,57.29494875068646,3.2285772516993645,0.06871140545405068,2.1281595826986024
192.0,0.3272132239817199,0.2987687441721445,25.016267298328124,3.2276234081927906,0.7142981866257754,57.282311294399875,3.226896732225418,0.06854549094596507,2.123714023512583
193.0,0.32307782007151864,0.2969321385221438,24.798980803872535,3.217916906922817,0.7144514015181198,57.11609543591336,3.2193049051405427,0.06267162271217569,1.9475836239695326
194.0,0.3188076794581515,0.29508633799652173,24.57849830334132,3.2194392487048735,0.7148498823723742,57.149256454384705,3.2191871325393078,0.06426356620599284,1.9961105410467055
195.0,0.3145254520049874,0.29323072666942335,24.361247150486868,3.217664378297095,0.7150398770755143,57.123767744451484,3.2177066553559817,0.07052820980853301,2.191906970914695
196.0,0.31016159466926674,0.29136467934340693,24.143870960304298,3.2138075264423676,0.7153562121351633,57.061375994143184,3.2133434448354894,0.07274776704636711,2.2636006185130104
197.0,0.3056491090639062,0.2894875601285893,23.92308789605857,3.212284869315801,0.7155714996642021,57.04056136244715,3.212650514449241,0.07293291596819237,2.270437365778418
198.0,0.3010476849782042,0.2875987210023984,23.70207610281824,3.216322713711089,0.7155233452111921,57.11856313235032,3.2175931021209663,0.06983128890824776,2.1711530565810153
199.0,0.29642322831027956,0.2856975003424541,23.483988085287336,3.223576482982603,0.7154176331492457,57.25366464825639,3.223442292485386,0.0730562053129707,2.266309042103934
200.0,0.29170096551250707,0.2837832214252322,23.2654951539035,3.2321200625592925,0.7153154596290678,57.41167184441181,3.231129600336411,0.06835063993114936,2.114730845642758
201.0,0.28680831782461197,0.28185519088317856,23.0433195615243,3.237667483294915,0.7152475669561275,57.51660538276151,3.236607936873953,0.06703643119340812,2.07051624477466
202.0,0.28188210112305784,0.27991269711297245,22.823817870454565,3.2374462024282105,0.7150058144567718,57.519017316850295,3.236483582582848,0.06864384346842282,2.1203083905127835
203.0,0.27676482046224243,0.2779550086275582,22.600247879813004,3.2323462848403737,0.7146521872210003,57.43494510294179,3.232576290800421,0.07010722853284385,2.168926914224663
204.0,0.2716806363886934,0.27598137234450526,22.38242814992237,3.240114092223656,0.7140549418230675,57.57949957552594,3.239795790105373,0.07715820523228979,2.3813422316661983
205.0,0.2663160362911602,0.27399101180313085,22.157105784368063,3.252642457229701,0.7133924234361163,57.80888506195069,3.253019203470528,0.08074066937202282,2.4823100120506396
206.0,0.2609003206838746,0.27198312530269514,21.934135056963992,3.2690628177508603,0.7128215869952723,58.107443197162134,3.2704579131660108,0.08142358189067503,2.4907316386992853
207.0,0.25534762009729645,0.26995688395382705,21.710248721440298,3.2904872349310117,0.7126783117174315,58.495039320963855,3.291329744907702,0.07754339337722939,2.3565930465873746
208.0,0.24966237578239026,0.2679114296352212,21.485593069402334,3.307837803622519,0.713043192483441,58.81031456635419,3.307169251073863,0.06949961953438909,2.1010588686748135
209.0,0.24383196346902652,0.26584587284749067,21.260100586952934,3.3141732508972006,0.7137859412336024,58.92997059332393,3.3142340178372764,0.07225603908582658,2.1802130913423334
210.0,0.23785659438217233,0.2637592904559865,21.0337488449149,3.321721906644648,0.7145939997330466,59.071266656966074,3.321014463178509,0.07427374770329374,2.2360013809319597
211.0,0.23172125239151292,0.2616507233143531,20.806427004251585,3.3217645510699882,0.7154636955258203,59.07914015532015,3.321954766335173,0.0751318891185187,2.261806577902026
212.0,0.22532687451173042,0.25951917376060923,20.574626827179372,3.3179843637887982,0.7163526441760008,59.019200785665014,3.318627758298664,0.07953709623502077,2.3971510264803526
213.0,0.21894907404210168,0.25736360297771854,20.34852334756176,3.323199111430045,0.7175138036310899,59.11914892406919,3.3228003498482717,0.08153006447258523,2.4533608050196265
214.0,0.2121958062267728,0.25518292821087923,20.114465075047484,3.3218002492125853,0.7189473008642857,59.101777811293246,3.3223219125110126,0.0783527938938044,2.358744897811887
215.0,0.20534784813607523,0.25297601983429524,19.882633196744578,3.3217143945331133,0.7202956789072565,59.10773656569059,3.3223338606165655,0.07550355388337053,2.2730296743041634
216.0,0.19819575023221858,0.2507416982609224,19.646085565627004,3.3234021859170246,0.7218582878080311,59.14541210325781,3.3238373036475926,0.07672748427999625,2.3087029491985747
217.0,0.19093664428684562,0.2484787306898044,19.41163209250882,3.3337853692566037,0.7229698034908962,59.33784890820121,3.332621091256063,0.07853555578355677,2.355747208797347
218.0,0.18344070684563488,0.24618582768714417,19.17549342544289,3.3387701421226272,0.7237077812134856,59.43436787375583,3.337696393284395,0.07747255125708327,2.3203918796227763
219.0,0.17558402881857846,0.24386163959933677,18.934020224157578,3.339994948733986,0.7246977325779832,59.464167534971814,3.33931614686013,0.0779253645945898,2.3330982768140758
220.0,0.16895336142924305,0.241504752798992,18.734023060586402,3.340960006920104,0.7257770558295294,59.48800165527602,3.3404485651806715,0.08304249858295977,2.485587927151313
221.0,0.16490918488163056,0.23911368576862801,18.61240451138201,3.347115538476952,0.7260068542140552,59.60163628623396,3.345613614823471,0.08405492267879401,2.5112644518104017
