T(K),Fc,X,m(mol/kg),cp(J/gK),cp_err(%),cpm(J/molK),cp_SMA_1K
183.98865,0.1402982191823598,0.3132227762324396,26.77918168911762,3.2701322457379525,0.7096471332066299,57.98843420336652,
184.0169205,0.1401588705516271,0.3131723821297011,26.772908679778244,3.3283853236188548,0.7198692332763305,59.02159279752556,
184.0454275,0.1400215194836442,0.313121563338486,26.76658373775667,3.202923851017293,0.6985697711802519,56.79697585554836,
184.0743125,0.1398797475762297,0.3130700674945397,26.760175483900525,3.219610799592552,0.7016151247050342,57.09305246235654,
184.10261,0.1397385863349413,0.3130196159009051,26.75389811050114,3.3636970253828795,0.7270468017963921,59.64829322025023,
184.1304035,0.1396024624129071,0.3129700598521238,26.74773306164327,3.3556041031203865,0.7261880233751775,59.50495169696762,
184.1587735,0.1394661351225461,0.3129194727820692,26.74144066524952,3.196210060743699,0.6990971572479026,56.67858120868223,
184.1878685,0.1393242527723583,0.3128675896663643,26.73498801945775,3.1509924794109714,0.6914599244814259,55.87690222361867,
184.2165665,0.1391807050395056,0.3128164112207826,26.728623967313847,3.303503694950808,0.7181339696896936,58.5815734281861,
184.244864,0.1390426079948302,0.3127659438086584,26.7223492605556,3.2587448146625406,0.7102291068691896,57.78802490068296,
184.2728945,0.13890288159029,0.3127159494373936,26.71613427643328,3.3825794217450955,0.731588036025806,59.98418350298933,
184.301356,0.1387673013272718,0.3126651831335505,26.709824255694453,3.142618071454703,0.6900700894849672,55.72904786337197,
184.3300575,0.1386232315341088,0.3126139854524556,26.70346156068042,3.3111291104159024,0.719470653943045,58.71748104212875,
184.358408,0.1384851858548459,0.3125634106240535,26.69717720245457,3.235170139518663,0.7064651831924755,57.37063961322737,
184.386984,0.1383444557489324,0.3125124302302229,26.6908433849952,3.2458856455159726,0.708439693687422,57.56083129451417,
184.415541,0.1382040838105521,0.3124614804162661,26.68451430523669,3.239895208905893,0.707413831559184,57.45476870848457,
184.4436515,0.1380634305494628,0.3124113239710899,26.67828469537552,3.375094452987408,0.7305068975356688,59.85250110786623,
184.4718155,0.1379273460182627,0.3123610688192829,26.67204373725885,3.228762496325148,0.7046945710845273,57.25767772378879,3.263404515803679
184.5003915,0.1377860571202288,0.3123100751675701,26.665712000567623,3.263491134741674,0.7101465632204194,57.87371257434175,3.2633680644555567
184.52912,0.1376458065647341,0.3122588059783935,26.65934699775033,3.1943748406628454,0.6976028924666642,56.64819356744109,3.2610707892799393
184.557818,0.1375029029757345,0.3122075877997297,26.65298927532157,3.278281153135948,0.7114758395028005,58.13633735771205,3.265170776077295
184.5866685,0.1373628423732436,0.3121560939899142,26.64659829321773,3.1605894676415,0.6905334682532162,56.04938445818209,3.2633194080292665
184.6154045,0.1372183209507615,0.3121048010828151,26.64023319671104,3.3183224695216404,0.7171339476541204,58.84677002014231,3.2616665021493336
184.643496,0.1370792792547841,0.312054655235175,26.6340113599393,3.3417202685621,0.7213503825061297,59.26187527181403,3.2601512545121074
184.671946,0.1369410081055612,0.312003866039616,26.627710624402088,3.215085066638343,0.6997721349169429,57.01630072701575,3.2626103414241467
184.700663,0.1367983167315652,0.3119525967163552,26.621351269275983,3.261791071411521,0.7081634409136696,57.84475563186099,3.2677403757448045
184.728915,0.1366572979671329,0.3119021541491542,26.61509538834848,3.343434007474658,0.7224019316461631,59.29278761188335,3.265131378000852
184.7571665,0.1365190908271081,0.3118517090667728,26.60884011269296,3.2615360822965247,0.7082201273844041,57.84056986492404,3.264391122206249
184.785895,0.1363779666823062,0.3118004087581038,26.602479728005704,3.2112503505249044,0.6994312812054436,56.94896348808991,3.2597872945857955
184.8145475,0.1362349313726412,0.3117492406243229,26.59613667531501,3.286506724411806,0.711941264892687,58.28374708055034,3.26610884325653
184.8430775,0.1360944470899057,0.3116982877287209,26.589821241742907,3.249525782274543,0.7050326103704544,57.62808681861519,3.2648096486619944
184.871596,0.1359525111116805,0.3116473518428211,26.583508850951663,3.2929034630162675,0.7122478643385892,58.39753129577512,3.2675128978353634
184.900313,0.135812029382895,0.3115960578442651,26.57715302391465,3.195492437181497,0.6959282766002226,56.67017670160394,3.2662679726263373
184.929049,0.1356680135187429,0.3115447262992373,26.57079349263708,3.285761595491363,0.7116734299833294,58.27121940914103,3.266747257169188
184.9575865,0.1355272311102973,0.3114937457510264,26.56447838537255,3.248153193034911,0.7050412450867641,57.60442376732284,3.264282357678788
184.9861815,0.1353850688299826,0.3114426588834998,26.55815104609242,3.268856448553681,0.7085194964224971,57.97175661330802,3.265696292549433
185.014773,0.1352436038364284,0.3113915746531126,26.551824972193607,3.247980692472232,0.705331012373913,57.60170363746535,3.2681628484671053
185.043097,0.1351013628468072,0.3113409647843762,26.5455585669056,3.346423388924736,0.7217650822473292,59.34772051373029,3.2686107434721916
185.0717795,0.1349624413138527,0.3112897106972664,26.53921333451458,3.1548129179115483,0.6888285481678685,55.94973691850157,3.2682533467838333
185.1006035,0.1348165261328544,0.3112382000493984,26.53283729148101,3.30584531958524,0.7148710012294971,58.628428901936346,3.273986287660063
185.128882,0.1346760867982589,0.3111876606250503,26.52658239435576,3.3025704358174672,0.7142064619206759,58.57052011789231,3.2707447107577043
185.157248,0.1345354775246516,0.3111369611989177,26.520308617134926,3.282278102665076,0.7105785616779974,58.21080910796326,3.2681834232545928
185.1855185,0.1343940565579972,0.3110864288406079,26.514056432501803,3.330543680633992,0.7190075474985418,59.06696532275765,3.2716137420846545
185.2140375,0.13425428566153,0.3110354486211053,26.507749765000884,3.2121887739124704,0.6988520882761277,56.96811644157308,3.2722736459852935
185.2428995,0.1341102787667417,0.3109838514842679,26.50136773007921,3.232835861851435,0.702332207292897,57.3344626568003,3.2702982056453678
185.271723,0.1339669801092884,0.3109323193707587,26.494994691837125,3.221445455029234,0.7005804302223907,57.132623000639256,3.268773055468491
185.3000855,0.1338232398747516,0.310881607731998,26.48872405319652,3.3638722749303867,0.7249293517464497,59.65874968456927,3.2702386402009904
185.328299,0.1336844195126501,0.3108311588237394,26.48248681760636,3.2656572996071747,0.7077428167454324,57.91706157225818,3.272842738220104
185.3566385,0.1335420500224982,0.3107804809061187,26.47622218783524,3.329783860586589,0.7185800499436032,59.0545309150078,3.2717279843454756
185.3852105,0.1334018624494053,0.3107293834469548,26.4699066284543,3.202313263200056,0.6966690805795251,56.79397590041566,3.272366471873922
185.414042,0.1332570591017572,0.3106778180481406,26.463534181734737,3.256670167905652,0.7059300019117442,57.75818332633503,3.27259901951751
185.442561,0.1331141679339126,0.3106268077335689,26.45723127025436,3.288822970823423,0.7114606110770598,58.328595941595694,3.2729580848433644
185.471003,0.1329723673757689,0.3105759313421732,26.450945835555626,3.2782502167977143,0.7098364173297245,58.1412543251604,3.274042154264092
185.4992355,0.132830130184355,0.3105254259306987,26.44470715040613,3.349820591860201,0.7218531380953748,59.410760257294505,3.27376785576219
185.527716,0.1326903092820879,0.3104744730513388,26.438414117855714,3.210051165840867,0.6979772977233378,56.93204601352655,3.2747553878283093
185.5564825,0.1325454786248285,0.3104230045985945,26.43205835257893,3.265772269043417,0.7077936019055725,57.920462574181805,3.2692558809729872
185.584696,0.1324026840066258,0.3103725217352233,26.42582521793156,3.3612423983095527,0.724655645315705,59.61385691618669,3.2738932150612587
185.613108,0.1322632687967398,0.3103216798488408,26.41954867686222,3.204867277939065,0.6986587261625835,56.84060723021278,3.2719527380298126
185.6418825,0.1321183725752183,0.310270185341112,26.41319251148827,3.2520752059531888,0.7069145367200309,57.6780446220411,3.269000971784888
185.6701835,0.1319752143585371,0.3102195343169408,26.4069413863672,3.3351462256905204,0.7213212080741984,59.151545394436745,3.2713352679980368
185.69837,0.1318349434265687,0.3101690843720582,26.40071599008352,3.2848877079338856,0.7124903604811746,58.26033882179853,3.268707706089587
185.726782,0.1316928174242437,0.3101182269171523,26.39444122965619,3.274293595577268,0.7103152678259307,58.07261318286168,3.271008365734086
185.75548,0.1315501727013308,0.3100668535377668,26.38810375398937,3.208155826105816,0.6989917888598837,56.899767322201605,3.271621269538143
185.784216,0.1314050625949176,0.3100154081065064,26.38175833563572,3.2625458161623944,0.7084000852688412,57.86459825684864,3.2716109960988566
185.812346,0.1312619196312467,0.3099650436675259,26.37554716633784,3.377650155080771,0.7283219866380861,59.90626565601257,3.2707187627329644
185.840655,0.1311227741348435,0.3099143548188442,26.369296904772,3.210509396662558,0.7001787380512905,56.94201045949024,3.2703253449684375
185.8691695,0.1309777182381721,0.3098632940169018,26.363001707236425,3.3152505265118872,0.7180280427457854,58.79988567339729,3.267235755509251
185.897707,0.1308363952400534,0.3098121880019308,26.356701868153003,3.2036316047070703,0.6989541107290896,56.82035949069863,3.2680890274191725
185.926302,0.1306909896420225,0.3097609749591926,26.35038977158128,3.29832888189626,0.7153740954602172,58.500105149074365,3.269018691759849
185.9545845,0.130548972790066,0.3097103175913966,26.34414708432122,3.2860956227603806,0.7136385438879155,58.28330265733444,3.265898761887154
185.9829775,0.130406591526091,0.309659458283899,26.337880432980533,3.2592560009871177,0.7100910376633491,57.80743543098672,3.2660443420428034
186.01135900000003,0.1302633472455661,0.3096086155361298,26.331616744898263,3.2825443147864104,0.7144737221398489,58.22065657802303,3.2649572980157813
186.040118,0.1301209655394538,0.3095570923993798,26.3252701758356,3.1539406489884585,0.6922863733755309,55.93985117276532,3.265023455120503
186.0687625,0.1299738020643493,0.3095057702447368,26.318949305149182,3.317119611001058,0.7200994341552038,58.834247898290805,3.264917958392974
186.0971095,0.1298324561679525,0.309454977027561,26.312694503827707,3.237928623484626,0.7062593274013733,57.42984127605996,3.261041654499688
186.125895,0.1296881701235797,0.3094033939109302,26.30634337400247,3.199258617245099,0.6989293220603057,56.7441355110909,3.262937082892943
186.154261,0.1295422865831335,0.3093525583981689,26.30008522048557,3.3639784701252884,0.7267682564738086,59.66588889280258,3.263299176341978
186.18249,0.1294021128422334,0.3093019643207054,26.29385770373806,3.238579013838241,0.7053483723192745,57.4418833354882,3.2605215343168332
186.2109515,0.129257492454091,0.309250949399325,26.28757930989913,3.2927118614699444,0.7151787082154024,58.40219604441679,3.2626305583952178
186.2393365,0.1291148567533951,0.309200067443785,26.28131820381812,3.254287494993427,0.7090881081165237,57.72083965178196,3.260501928030203
186.267958,0.1289708899733384,0.3091487573323194,26.27500534641345,3.221085884654224,0.703901041620679,57.132116235556914,3.262378819168864
186.2962785,0.1288257470968937,0.3090979826483774,26.26875928750476,3.3326441071241435,0.7238441730808097,59.11098749085901,3.264707658806971
186.324454,0.1286847038087455,0.3090474637908695,26.262545610198853,3.2518876778487336,0.7109084302789148,57.678781500757374,3.2607703343372254
186.352999,0.1285409081432572,0.3089962781947024,26.25625085253598,3.2216482295150657,0.7058226729865119,57.14259243980279,3.262166527594628
186.381609,0.128396010953771,0.3089449717649923,26.24994217066935,3.232177780047314,0.7077171600342681,57.32952523605068,3.2610506656100178
186.4099865,0.1282514380694756,0.3088940780335669,26.24368515995018,3.289208419829319,0.7172178395091802,58.3412555885411,3.263989573123644
186.438574,0.1281087746412945,0.3088428033885095,26.23738225054352,3.1796254252791,0.697815507862,56.39772975083447,3.2619599917048068
186.467196,0.1279619549458586,0.3087914625383601,26.23107213983598,3.2833455222454373,0.715274011785039,58.23760863252433,3.263958018542934
186.495341,0.1278188230527982,0.3087409730750548,26.22486758401814,3.3117740509144378,0.7207108463911475,58.7420241717849,3.2628231927254743
186.523726,0.1276767170403346,0.3086900488085597,26.218610514082428,3.2123666645061206,0.7039608512757589,56.97896985996915,3.2621886973735723
186.5522825,0.1275310332772484,0.3086388125249761,26.212316036829645,3.262079883579904,0.7124154472796773,57.86092292339805,3.2671745540911132
186.580801,0.127387069214694,0.3085876400666346,26.20603033177913,3.2255717620445354,0.7056090354310084,57.21353122752415,3.2651459032888095
186.609301,0.127241649601915,0.3085364964427591,26.19974909814803,3.271207271703014,0.7131128289595225,58.023161350940505,3.2634819579922376
186.637675,0.1270977533104083,0.3084855745830653,26.193496023684187,3.2647484766694053,0.7118361110384593,57.90876810367156,3.2666434063593877
186.666182,0.1269534925022627,0.3084344096537629,26.18721402835828,3.237928754810436,0.7067051854085645,57.43322016841193,3.2650485249239494
186.6943765,0.1268081247404553,0.3083838012749511,26.181001280282484,3.358703550677356,0.7271282247232094,59.57565391040538,3.26491311789473
186.7227275,0.1266669209352055,0.3083329076266075,26.174754429019952,3.1997915328017545,0.6994508782269517,56.7570876538648,3.265793565809439
186.7513985,0.12651984086713,0.3082814350814071,26.168437457057703,3.273847015958939,0.7114554177804977,58.07083714899903,3.2676121570706447
186.7795815,0.1263752628856721,0.3082308342532121,26.162228382939706,3.3440552034961284,0.722834602698354,59.31634870034396,3.266833590639599
186.807898,0.1262330272314545,0.3081799893464704,26.15599027354942,3.2398437986396806,0.7049927928721533,57.468030781137216,3.265010935960031
186.8365195,0.1260869696219044,0.3081285923009851,26.14968535467678,3.259376160671665,0.7080500664083573,57.81466507286424,3.2624891588657428
186.865019,0.125941507543571,0.3080774098451204,26.14340769051335,3.2761953570505304,0.7107683473764037,58.1131745472166,3.265593556654869
186.8933545,0.1257965703923822,0.3080265174608761,26.137166525191304,3.3064933676839816,0.7158493250311965,58.65077280058241,3.267203090021568
186.921862,0.1256526585402228,0.3079753116551036,26.13088785002098,3.227293532236966,0.7025432431133557,57.24609034462996,3.265079462445304
186.95019,0.1255058453346955,0.3079244237882085,26.12464907986092,3.356026562094821,0.7248775634184235,59.52974559934576,3.2654607720748956
186.9785295,0.1253636443851451,0.307873510777907,26.11840814523785,3.219537097376022,0.7021134200810784,57.10884074013536,3.268621084558484
187.0071815,0.1252165907849626,0.3078220317751241,26.11209876452604,3.260336977469852,0.7095013247990285,57.832729276743066,3.263562784264801
187.035433,0.1250710783041778,0.3077712678333613,26.10587794223617,3.3284456341024016,0.7214139305597757,59.04103149206838,3.2639042738021202
187.063723,0.1249279928912111,0.3077204302050785,26.09964900441365,3.246116832920434,0.7077254631124735,57.58082555001437,3.2639626212691666
187.0925275,0.124781964943972,0.3076686633630922,26.093307153643057,3.1796905381045937,0.6968965062915814,56.40269946172438,3.26761514065211
187.121092,0.1246334970250409,0.3076173231986843,26.087018510897177,3.3099093100953407,0.7194341154954509,58.712748908651605,3.26423420627954
187.1491875,0.124489800032833,0.3075668214614755,26.08083347668859,3.3081576198849616,0.719152923470114,58.68184730259356,3.263942855753667
187.177546,0.1243460072305375,0.3075158424158983,26.074590900665665,3.23383976781556,0.7065653638917965,57.363726438245344,3.2635212114739245
187.2058475,0.1241994967569864,0.3074649612511819,26.06836122693717,3.3235275384847647,0.7220757319000249,58.954832952725056,3.2614507604411678
187.233851,0.1240561665948324,0.3074146113161543,26.062197495763527,3.317938189135629,0.7211516655972205,58.85585623964604,3.2621642511452045
187.2623005,0.1239125870680282,0.307363454858964,26.05593594964332,3.193836059567617,0.7006049046240219,56.65461475765606,3.263845920120121
187.290884,0.1237645639314542,0.3073120527467863,26.04964526690209,3.268851193339271,0.7146162788691361,57.98546010209272,3.2578144952978176
187.3195365,0.1236194879109328,0.3072605218060437,26.043339754955063,3.16362547954864,0.6975287994700747,56.11904999424961,3.2600412336896407
187.3479485,0.1234706303092598,0.3072094186950626,26.037087520182087,3.330302152134472,0.7265598677102927,59.07587491971351,3.25761864510752
187.375895,0.1233278993582774,0.3071591482700307,26.03093806066792,3.2885114478817767,0.7197171681890571,58.33472298992864,3.259847209944745
187.4042345,0.1231836967147434,0.3071081662577253,26.024702465745595,3.2148814546600923,0.707336335782541,57.028772080018655,3.2598583216268757
187.4329055,0.1230368079672189,0.3070565831017366,26.01839427895302,3.1929712623148,0.7037090050932638,56.64027554053088,3.262760426410228
187.460955,0.1228890749969471,0.3070061134418114,26.01222317229169,3.393956459171048,0.738401959887826,60.20573693908074,3.260775868778739
187.489218,0.1227484519299599,0.306955254945129,26.00600543037473,3.134733540635529,0.6939048302318961,55.60751826929156,3.2622337624109865
187.5180645,0.1225983979316391,0.3069033415932231,25.99965966746181,3.224318798312288,0.7090475579339479,57.19685590675249,3.2590200741165094
187.546446,0.1224516493361229,0.3068522602664102,25.993416537092585,3.264122044926519,0.7158324068938956,57.90310427502384,3.2577895375252126
187.574381,0.1223062538083777,0.3068019778848147,25.98727195197878,3.353409940447576,0.7312746580706863,59.48717761543202,3.2592167196853383
187.6027165,0.1221639798976439,0.3067509698654771,25.98103960354563,3.152874568663039,0.69681883694221,55.92998286952525,3.261893802989384
187.631407,0.1220143343421579,0.3066993179102628,25.97472951114628,3.25455120826387,0.713583905872184,57.73383334060964,3.259536017931159
187.65988,0.1218682786002343,0.3066480526510853,25.968467589324536,3.2231712050194377,0.7069622480215976,57.17733929061495,3.2591416963663136
187.688292,0.1217207472467541,0.3065968923695203,25.962219413333973,3.286237764530864,0.716471765651453,58.29627823309126,3.25989398606985
187.716742,0.1215751955549416,0.3065456587927926,25.95596320975993,3.224763707443041,0.7050944252910207,57.20592682910825,3.2551612743949887
187.7450585,0.1214271453150455,0.3064946607740534,25.94973668850524,3.33270543008102,0.7230904896779524,59.1209404179526,3.2566962307702005
187.77373,0.121282847380724,0.3064430184539095,25.94343243541669,3.13295533471551,0.6886112980343951,55.57761420119062,3.2579184209777803
187.802466,0.1211310020516515,0.3063912549502322,25.93711433087618,3.3177796423534898,0.7197649064370816,58.85651311624181,3.257819977086354
187.831061,0.1209859121169435,0.3063397404459141,25.930827554649905,3.1745855602974604,0.6950889344563418,56.31645594895201,3.260362527241776
187.8595415,0.1208353928798099,0.306288427253666,25.92456627457466,3.3541951263533814,0.7255955343518599,59.502866372010665,3.257588175826619
187.8875525,0.1206913618650798,0.3062379551138825,25.91840852401543,3.3068822765585533,0.7174717611169772,58.663714791598,3.2567275320991445
187.9156515,0.1205455724271454,0.3061873195705176,25.91223173799488,3.328867199654322,0.7211793593379039,59.05389705588469,3.2579029407655558
187.9438155,0.1204005076350405,0.3061365620178046,25.906040973419884,3.286567044992691,0.7141624525358296,58.30366539812428,3.258972849316178
187.97217,0.1202539203221625,0.3060854561980252,25.899808646641524,3.2705633745046843,0.7117465500563205,58.01993123770963,3.2524765700824525
188.001013,0.1201067568707507,0.3060334648067518,25.89346926683599,3.1478578871631524,0.6912436824667468,55.84329798259193,3.2591167132517778
188.0297875,0.1199549778271272,0.3059815917471168,25.8871452619361,3.285376853407002,0.7152007103282401,58.283071646599055,3.2606207055366596
