T(K),Fc,X,m(mol/kg),cp(J/gK),cp_err(%),cpm(J/molK)
175.1078705,0.9240120980155224,0.3289743709898976,28.786098586488063,2.897279953025197,0.5502854238745379,51.33010643331238
175.1364045,0.9240003774964732,0.3289237706153442,28.77950073373293,3.0754151591084455,0.5507911667991682,54.486225252133956
175.1648315,0.9239887168437112,0.3288733615628963,28.772928817001514,3.1966461519913856,0.551071852003143,56.63420372644462
175.19314050000003,0.9239770775704652,0.3288231633031805,28.766385362679348,3.4055973559049435,0.5459424352181607,60.33631615453313
175.2215945,0.9239655072571796,0.3287727094630627,28.759809579087765,3.1462100396349695,0.5460903570898059,55.7409629458674
175.250201,0.92395374263612,0.3287219867508681,28.753199749079904,3.346581101926563,0.5461957200221795,59.29108246181912
175.27853249999998,0.9239420407845882,0.3286717531480303,28.746654640812014,3.71806271464777,0.547178098750424,65.87278030049758
175.306616,0.9239304953205963,0.3286219607239322,28.740167981800397,3.8941151581194777,0.5408090048733682,68.992093087617
175.334719,0.9239189906099136,0.3285721351634015,28.73367796902166,3.9020083133362,0.5417358305247214,69.13213488783349
175.36334449999998,0.9239074227988696,0.3285213846914397,28.727068472332267,3.368296718583763,0.5357566772732202,59.676506545663706
175.391638,0.9238954825551012,0.32847122425864117,28.720536801162048,4.7225621586783335,0.5415666948508587,83.67042764241863
175.419951,0.9238841810573326,0.3284210306641747,28.71400178849785,3.679083608140898,0.5315829125956206,65.18313144277612
175.44848100000002,0.9238722181611586,0.3283704537788175,28.707417860828766,4.76482397013728,0.53212180534225,84.41967788132247
175.4767095,0.9238607319760846,0.3283204127566114,28.700904665835864,4.53857383741262,0.5302273434842938,80.41137501612023
175.504965,0.9238490103145132,0.32827032522492394,28.69438638906745,5.1980932474701715,0.526538115250749,92.09655893824547
175.53342650000002,0.9238374955355452,0.3282198738769257,28.687821748690535,4.741500893994737,0.5203793190050708,84.00718615849988
175.561995,0.9238255978413928,0.32816923420728367,28.68123359570851,5.60474311637718,0.5178407092473458,99.30190544211372
175.5901665,0.9238139885254012,0.3281192995544292,28.67473813691892,6.008072829258763,0.5139583282784487,106.4481967742989
175.6185555,0.9238024109604218,0.32806898067351853,28.668193674651505,5.940159035716199,0.5086445659704625,105.24523767423788
175.647303,0.9237906160551144,0.32801802766789234,28.66156773698782,6.194569469818889,0.5024284078205974,109.75309718098234
175.67552799999999,0.9237787366593464,0.32796800202295573,28.65506337095301,7.753639581306181,0.5029676832852914,137.376522735652
175.70356600000002,0.923767365560345,0.32791830903903274,28.648603216367185,7.538156496690186,0.4971053994225666,133.559044661992
175.7322485,0.9237556336315634,0.3278674750255437,28.641995714800643,7.777767703874068,0.4847845608214251,137.80481606622016
175.7606455,0.9237437248304032,0.32781714822892827,28.635455126726438,9.370866985634532,0.48376903990235864,166.03148853316148
175.788607,0.9237322216464632,0.32776759442538844,28.629015955515595,10.049843245711584,0.47957795570228956,178.06198771898198
175.8169765,0.9237206653523984,0.32771731873318055,28.62248395000968,10.244726916726913,0.4665747921309323,181.51544088327284
175.84548,0.9237088190828462,0.3276668067453408,28.615922227891467,11.65038526938482,0.4635541081652762,206.42141036163716
175.87345349999998,0.9236971456304438,0.3276172351176526,28.60948362108154,13.448040634830999,0.46115068136289306,238.27293142633025
175.902022,0.9236857301782548,0.32756661023365835,28.602909191936828,12.718496218358716,0.44034508187152904,225.34749166495018
175.9306855,0.9236735587944318,0.3275158181443956,28.596314043346297,15.927520050787173,0.4461660152319376,282.20609919062815
175.9585785,0.923662058316309,0.3274663924709835,28.589897274699442,17.440738595862243,0.4377137166655745,309.0184045980151
175.9867575,0.9236505166068492,0.32741646107872696,28.583415807891836,18.662853380310946,0.4266270434957745,330.6730246427833
176.0147575,0.923638773276582,0.32736684790831305,28.57697660174514,21.89776215833363,0.42549014806370644,387.9910438079922
176.04296349999998,0.9236273730084552,0.327316870764248,28.57049111641249,22.507519110446335,0.40880295026362246,398.7960476953868
176.071322,0.9236154526752054,0.32726662444487853,28.56397167187075,26.553234807525296,0.41112536691555146,470.48080808172824
176.099444,0.9236039197527516,0.3272167981698499,28.557507689576397,28.77501906416341,0.39941486157445605,509.8487329586784
176.1279855,0.9235921882857342,0.32716622963856107,28.550948392956084,31.427618573221476,0.3905792824718566,556.8503082941753
176.1562905,0.9235803015572658,0.3271160811154762,28.54444454967431,36.578151579843635,0.39345820846400137,648.1119096664912
176.18422149999998,0.9235687591166418,0.3270665961644866,28.538027716340707,40.4011968961852,0.3886865288247682,715.8527827511399
176.2124465,0.9235571753087723,0.32701659127968574,28.531544420525048,43.640998444942035,0.3792098662216138,773.2597711693197
176.240912,0.9235453827490115,0.3269661612552075,28.525006979677777,48.199179064869426,0.3757774784100848,854.0270821556942
176.268977,0.923533592985128,0.32691644167512407,28.518562595526507,54.95261822664123,0.3813056970788557,973.6920767763555
176.29670199999998,0.923522125569853,0.3268673253072486,28.512197331240216,59.72373742766856,0.3774435873083424,1058.2333748287153
176.3247395,0.9235106109694822,0.3268176561950761,28.50576137831117,63.38928674240552,0.3697607842806058,1123.1857526912293
176.353163,0.9234988778704948,0.3267673041482643,28.499237902384547,67.79130905669199,0.36466348605596566,1201.18804759746
176.381541,0.9234870364237532,0.32671703356592546,28.492725954137075,74.05794949442702,0.36724612505117,1312.2298844023544
176.409617,0.923475334253197,0.32666729879680007,28.486284370900545,80.18346016865016,0.3690262091305375,1420.7716411384897
176.4373535,0.9234637366123276,0.3266181662260221,28.479921717933617,86.9857981300035,0.37303214915260186,1541.3067117155688
176.465468,0.9234523096024536,0.32656836485681673,28.473473403235865,87.73303100406049,0.3579141262811449,1554.5514414831343
176.4933535,0.923440391381346,0.3265189699058015,28.467078653852788,99.30468194890574,0.37719997806792593,1759.5958378288678
176.521445,0.923429148019792,0.3264692108197474,28.460637711309907,95.79648495494972,0.35186346523840994,1697.4383944102008
176.549662,0.9234170517460936,0.3264192301879556,28.454169049305506,108.03823615005837,0.37286371299050736,1914.358118173133
176.5775665,0.9234056975366912,0.32636980381475866,28.447773065307484,107.23359936384864,0.35804934924085197,1900.1059615774066
176.605849,0.9233938540755228,0.32631970862589527,28.441291491355507,113.16666589356846,0.36235423150773177,2005.2416310098552
176.633784,0.9233821788910892,0.3262702296441477,28.434890591622356,118.24140968828041,0.3656367478101087,2095.1688543168907
176.66184850000002,0.9233706176291316,0.32622052197478957,28.428461054107046,118.84292804107686,0.3586047239609257,2105.8334450773755
176.6897795,0.9233588279003704,0.32617105142637415,28.42206312929632,125.54710333852616,0.3684888697201053,2224.634210141034
176.7175165,0.9233473710448132,0.3261219251279637,28.415710655217346,125.37231914244727,0.3631228946385449,2221.543411705012
176.74563849999998,0.9233357360288412,0.32607211757693877,28.409271034509384,124.76467562146098,0.3587888847179874,2210.7825803332858
176.773703,0.9233239518504454,0.32602241249151753,28.402845610436824,127.3979013268849,0.36440496420599683,2257.4488082862554
176.801882,0.9233123579291752,0.32597250522859705,28.396395004140192,123.10879655591087,0.3559242327731529,2181.4535638298676
176.8300915,0.923300471415368,0.32592254454807545,28.389938450232005,124.38439623671663,0.3638486756724865,2204.0631844581176
176.8580915,0.9232888452410588,0.3258729554829622,28.38353086754925,120.16789614845729,0.36149041810788946,2129.353851725911
176.88604199999997,0.9232771264373124,0.3258234546439337,28.377135624983985,117.365478220919,0.3656874695064988,2079.7014383793057
176.91392,0.9232655347421512,0.32577408274566916,28.370757976268735,111.32205428155095,0.3640605172138246,1972.618346096367
176.9420535,0.9232538695724328,0.3257242588907093,28.364322892571888,104.15675322690308,0.3605624855608106,1845.6550582900186
176.9705835,0.9232420578226692,0.3256737333738232,28.357798155668593,97.14909564964468,0.3557726003257709,1721.4845570606994
176.99898000000002,0.9232300546884504,0.3256234447958395,28.351304987277,96.392677845513,0.36491198724493945,1708.0857665915992
177.0268845,0.9232183473525182,0.32557402800749075,28.344925326046187,95.96375721190044,0.3683606004897594,1700.49010512466
177.05490350000002,0.923206748093954,0.3255244089174686,28.33852048844361,94.43127122624315,0.3622623539076268,1673.3390443381406
177.0829875,0.9231949381790584,0.3254746751750522,28.332101797064695,97.76439300733414,0.3664340903125593,1732.4075276425947
177.1108155,0.9231832777211488,0.32542539521706165,28.32574260513763,101.18389826696584,0.3679738542000201,1793.0070422909384
177.138918,0.9231716748670298,0.3253756295786683,28.319321682797277,101.64039334931473,0.3589589377247646,1801.101431587761
177.167315,0.9231597779331676,0.3253253428401098,28.3128344886172,105.85334074362004,0.3598452013936956,1875.7616937270082
177.19529599999998,0.9231479217581924,0.3252757931701451,28.306443325105533,113.22314018312677,0.36828013779651875,2006.3630916909933
177.22324600000002,0.9231363658360388,0.3252262987736228,28.300060228094008,114.30751768602754,0.3598040758043107,2025.5845117056924
177.2514635,0.9231245285694,0.32517633105057125,28.29361703782824,119.12857127036106,0.3609904289339643,2111.0219958408893
177.279673,0.9231127417586886,0.32512637784782294,28.287176673605966,122.73942701474478,0.35923521741843045,2175.0145556952907
177.3078635,0.923100904083584,0.32507645862824236,28.28074164313438,127.55975989249309,0.3607688312966863,2260.4401848626753
177.3357985,0.9230891261080654,0.3250269921616803,28.274365915470888,133.3759510363796,0.3650353845727354,2363.5135375821087
177.3636455,0.9230774954776096,0.3249776818234038,28.268011241188677,135.9743029407294,0.36250662179612236,2409.5649705912606
177.39144349999998,0.9230657842589252,0.324928458536856,28.261668711245296,140.73841167375917,0.36578611584652343,2493.9955709514265
177.41951999999998,0.9230541877990008,0.3248787423702636,28.25526361142108,138.65422209083425,0.355300295345936,2457.0691326215365
177.4476685,0.9230422359571518,0.3248288989713471,28.248843066733578,144.50533256102634,0.3637827816440121,2560.763078310456
177.4756645,0.9230305720940614,0.32477932585288305,28.242458278251576,143.25382898802985,0.3588203357265032,2538.592577722829
177.5038935,0.9230187410525412,0.3247293403875978,28.23602133057711,142.4988852533999,0.35799285859765323,2525.221542883761
177.5321985,0.9230068745166956,0.3246792205659498,28.229568037712724,139.97736631657523,0.3571919200599033,2480.544895667532
177.56012950000002,0.922994972452149,0.3246297631869932,28.223200978083554,140.17868414431365,0.367733811521916,2484.119541510612
177.5882135,0.922983412932616,0.32458003507526045,28.216800004894598,127.15728076949488,0.35422579929915343,2253.372498443881
177.61645,0.9229713751049828,0.32453003710395656,28.210365245706175,123.0454527245804,0.3648147627007558,2180.5124871997514
177.6444,0.9229596803641652,0.3244805465880058,28.203996734301057,113.50996322950188,0.36245025148955423,2011.537956584579
177.67227,0.922947876139634,0.3244311978641287,28.197647397982667,107.60890269293182,0.36827140761805266,1906.9692385960543
177.70039200000002,0.9229362416277288,0.3243814030544531,28.191241607249406,96.56354654331125,0.35794779388666104,1711.2361237975424
177.72903300000002,0.922924218216065,0.3243306893794672,28.184718580713046,89.61752025118916,0.35775182909363246,1588.1478249428278
177.7574525,0.9229121397286988,0.32428036800432286,28.17824698138195,85.68292683279333,0.3653758726105009,1518.4257311372442
177.78534150000002,0.9229002953526316,0.3242309860452435,28.171897133004737,81.80810816466075,0.372514131074892,1449.7624525242911
177.813578,0.9228886562417562,0.3241809888462008,28.165469118513368,72.62915873541344,0.3599241989663347,1287.101403484303
177.8420205,0.922876511891803,0.3241306269419646,28.158995176241294,70.31732484456946,0.3702808007303654,1246.1357377981003
177.8705695,0.9228646920029692,0.3240800764981443,28.1524979676612,63.012293213001605,0.36054263419058435,1116.682119682938
177.8987985,0.9228524503321356,0.3240300926835925,28.14607454296499,63.59893488536244,0.38088110809797115,1127.0816292139016
177.92661550000003,0.9228408929424996,0.3239808383830133,28.139745797360046,57.48644930947419,0.37326350164904104,1018.7608497757934
177.954993,0.9228289912793056,0.3239305916197086,28.13329047920651,53.1743561420972,0.37147217293157325,942.3457152639043
177.9836755,0.9228169538764462,0.3238798047799969,28.126766751180728,49.24084286515452,0.37026661847502373,872.6393046039716
178.0119115,0.922804787357644,0.3238298084967033,28.12034552981884,49.00704547200993,0.38536797273583184,868.4984836080365
178.039988,0.9227931193987324,0.3237800945774576,28.11396151507051,44.14439360100321,0.37787719023558897,782.3252438096061
178.068404,0.9227810800573564,0.32372977944748516,28.107501251522123,41.90331056696881,0.38236607034460496,742.6110108965726
178.096644,0.9227691180525182,0.3236797758672756,28.101081942048896,39.75205133394664,0.38705441314206884,704.488398070996
178.12453299999999,0.9227572199319584,0.32363039369087265,28.09474333806179,38.51488602060834,0.3952317821042368,682.5652186146069
178.15265499999998,0.922745547229888,0.32358059883366735,28.08835270027388,34.414047728732584,0.3867456906765418,609.8914440087527
178.1812995,0.922733444744438,0.3235298786659269,28.08184427598157,32.3609677818033,0.38988985307076546,573.5080988598168
178.209719,0.9227213227821156,0.32347955675152795,28.075387920091767,31.3346972764572,0.3978753169066961,555.3219212856014
178.2379325,0.9227094030338574,0.3234295994357371,28.068979292604904,29.440481120667112,0.3999838594035767,521.7536166373766
178.2665235,0.9226974478243448,0.32337897350505085,28.062485859246774,26.709270919610237,0.396807100227572,473.3516181223233
178.2949395,0.9226852009742372,0.32332865725103255,28.0560331086749,26.755639237296453,0.409579922126625,474.1747502595723
178.32311099999998,0.922673386412182,0.32327877372667974,28.0496368002447,24.451953406686762,0.40852034819436167,433.3491023619259
178.35138899999998,0.9226613389973028,0.3232287013997008,28.043217230901718,23.572278282788,0.4149422609295365,417.7602891207526
178.379923,0.9226494267715504,0.32317817552840933,28.036740477291257,21.143229052005676,0.41123134509431164,374.71249518210385
178.4083885,0.922637154731166,0.32312777069543575,28.0302802026617,21.31222745863738,0.42294308783927825,377.708680036495
178.436541,0.9226252930266532,0.323077919835409,28.023891875789587,19.741108427754423,0.42417078543563,349.86532740431625
178.4649225,0.9226132787324756,0.3230276631914162,28.01745250056298,18.5884720651691,0.425692890258827,329.43847772745573
178.493281,0.9226012152351688,0.322977446975202,28.011019260201124,17.839661419925637,0.43094423852391445,316.16842396037714
178.5213875,0.9225892128431172,0.3229276766812605,28.004644088895944,17.392975254235253,0.43844224357742106,308.25278710688383
178.549265,0.922577355680016,0.3228783115751865,27.998321744644272,16.685837558114862,0.442090615962198,295.72114581889
178.577513,0.9225655402501474,0.32282829005321206,27.991916271397297,14.908628679370583,0.44047849048355037,264.2246429084833
178.6060395,0.9225533608596096,0.32277777500196936,27.985448559885345,14.524846562185315,0.4458120612493615,257.4236474733401
178.6344475,0.9225413012186556,0.32272746941538794,27.97900862606035,13.793947925055729,0.4472782152908603,244.4706504415704
178.6631415,0.922529214772886,0.32267665697614445,27.972504777953922,12.620590935835049,0.44734238501260676,223.67585628619346
178.691454,0.9225169041738056,0.32262651970576245,27.966088305943185,13.416504236317055,0.4608214555945925,237.78258587151325
178.71956849999998,0.9225051344927064,0.32257673265034276,27.959717593633798,11.903884984015345,0.45643389700657944,210.97482833958009
178.7482475,0.9224929845441304,0.32252594550005187,27.953219874734287,11.151526042846491,0.4597112911240215,197.64120575428154
178.776789,0.9224807268140042,0.3224754013895637,27.946754217554098,11.20989629864455,0.4661360856630589,198.67629492710554
178.8050445,0.922468686086839,0.3224253632924643,27.940354240335164,10.83304522926518,0.4691772106601875,191.99780627301826
178.8336165,0.922456664080609,0.3223747642163735,27.93388347387594,9.767762489611851,0.4686340112823246,173.11793695613136
178.8619405,0.9224443459382802,0.3223246038358057,27.927469762915706,10.54869891623855,0.4776897414183555,186.9593243025698
178.890215,0.9224325275468526,0.32227453061013955,27.92106814285773,9.132590783287178,0.47412323287867364,161.86147169389534
178.91850849999997,0.9224202436936156,0.322224423214078,27.914663101135805,9.790985554589676,0.4846721172425646,173.53103264299952
178.9468215,0.9224084015018192,0.32217428074622434,27.908254524280796,8.445862479344331,0.4799221784524137,149.69110783274655
178.9752605,0.9223960931033388,0.32212391457542183,27.901818310979028,8.902600742829012,0.48547588575217904,157.7866133438557
179.003489,0.922384135730619,0.3220739206391415,27.895430610712577,8.229272388680288,0.4879259719048665,145.8531950944532
179.0319005,0.9223719990791692,0.3220236020172066,27.889002376776606,7.999800168846161,0.4902810726390484,141.78650850900206
179.060198,0.922359877705111,0.3219734846990581,27.882600807922973,7.919017760209341,0.49229965983837354,140.35514631824734
179.088366,0.9223478305726888,0.3219235961295594,27.876229397341014,7.761168142187099,0.4962558179436801,137.55784570992094
179.1165565,0.922335812029024,0.3218736670891466,27.869853756712075,7.439122883126631,0.49732921411599335,131.85034064297113
179.144957,0.9223237378911474,0.32182336546845475,27.863431489119016,6.977057038317472,0.49648799922937614,123.66108604069937
179.173293,0.9223115319911912,0.32177317742912903,27.857024672453715,7.147518976187221,0.5022241166432674,126.68271329997079
179.2015215,0.9222995051627872,0.3217231791230095,27.85064301917231,6.75381457745403,0.5042049232486917,119.70503678720026
179.2300245,0.9222873833112796,0.3216726939310271,27.844200175597408,6.264873523076834,0.5020145926689378,111.03933778949212
179.2586345,0.9222751136962454,0.32162201850414734,27.83773401891927,6.169387380855693,0.5055276688555197,109.34724989081927
179.286768,0.922262892265884,0.3215721863650627,27.831376407306823,6.695737530713195,0.513060905372912,118.67670858491684
179.3147795,0.9222510227273342,0.3215225696053353,27.82504720176009,6.038006269812696,0.511856144382031,107.01924275116399
179.3431495,0.92223889790315,0.3214723170917872,27.81863784178349,5.799683743093009,0.5128238558542304,102.79544816260362
179.37155,0.92222671340027,0.32142200978921365,27.81222244469756,5.730317468532401,0.5124405456496479,101.56627270502305
179.400149,0.9222145544725514,0.3213713500860865,27.8057630691979,5.241876263029761,0.5145384575624684,92.90923091262397
179.4287365,0.9222021917053,0.32132070994944223,27.799307152282136,5.536283382089664,0.5184264259770658,98.1277136227254
179.456946,0.9221900345887304,0.32127073860207095,27.792937441101916,5.660087132107433,0.5173782826624219,100.32235904088287
179.4852355,0.922177988055396,0.32122062472397056,27.786550503804218,5.22841888883533,0.5174961215752647,92.67151195817313
179.51354049999998,0.9221657542922604,0.321170482555926,27.780160904812877,5.486119268207592,0.5208302933009277,97.23942319768291
179.5417845,0.9221536865268816,0.32112044760474695,27.773785909278015,5.217927244843836,0.5198786221286283,92.48608612099652
