T(K),Fc,X,m(mol/kg),cp(J/gK),cp_err(%),cpm(J/molK)
183.0002655,0.365098453569337,0.3149828131161564,26.998848410659647,3.198102401712888,0.7062859316551767,56.70539557557083
183.0303255,0.3649909777602149,0.314929334146008,26.992157179297372,3.1709462558987975,0.703227079710868,56.224064572459795
183.060141,0.3648828066080734,0.3148762872589945,26.985521041687786,3.2722637231862195,0.7166016972284062,58.020702479951474
183.08989200000002,0.3647770013509186,0.3148233522332041,26.978899922159762,3.189988153897045,0.7064682174204207,56.56204201621907
183.119578,0.3646692086840432,0.3147705299612567,26.972293925613325,3.29065712415086,0.7184152533704741,58.347192562846715
183.14946600000002,0.3645637876383066,0.31471734531615786,26.96564363928133,3.1240166053666716,0.6991328914454501,55.39263138836059
183.179621,0.3644544587299373,0.3146636825467883,26.958934613720807,3.199729442769413,0.7098573217817519,56.735287952250836
183.2093335,0.3643470346836182,0.31461080426426663,26.952324693903318,3.2480405519792646,0.715069460440588,57.592081089852684
183.2392105,0.3642408019811234,0.31455763023777156,26.94567883374994,3.143513622059844,0.7033529861527802,55.73885032768312
183.26912549999997,0.3641321098129195,0.3145043855609593,26.939025176590693,3.230966515116663,0.7138325198633066,57.289687027071714
183.298876,0.3640255196288813,0.3144514306597026,26.932408756006673,3.1888113392135735,0.7098178042518644,56.54238762376292
183.3286765,0.3639179261776773,0.31439838373252355,26.925781862046946,3.2106741302284156,0.7119454155643961,56.93022159044418
183.3582675,0.3638108917507391,0.3143457067156463,26.91920219388099,3.2452392235706045,0.7183494732719189,57.543288869105936
183.3882585,0.3637047233345957,0.3142923145500479,26.912534231046187,3.085439471633304,0.6980000382230973,54.70995166845582
183.4181845,0.3635947205783162,0.3142390349948014,26.90588136675821,3.262360942494469,0.7188046614007604,57.8472399551246
183.4477445,0.3634889364658685,0.3141864039943218,26.89931050053119,3.1955249521361235,0.7109482257002969,56.66229536957706
183.47754500000002,0.3633814874025947,0.3141333416908905,26.892686807946795,3.192254235239805,0.7102500180346554,56.604472869402734
183.5072235,0.3632738838439392,0.31408049351205725,26.886090862848903,3.2372078865581795,0.7168837807498128,57.401757667902864
183.537356,0.3631672305853253,0.3140268337123636,26.879394659756755,3.06721527283687,0.6941039866843418,54.387638480796625
183.5675075,0.3630562617145183,0.3139731368458575,26.872694879715187,3.2409252620176225,0.7146830462156519,57.468029215689675
183.5966975,0.3629493853564379,0.3139211492213166,26.866209361685822,3.3672108308288413,0.7301875135387677,59.70750154958034
183.626002,0.3628452795240573,0.3138689545930141,26.859699008374122,3.2102346743839423,0.7105098214939687,56.924166001044114
183.65589,0.3627374915055465,0.31381571749243486,26.853059645442233,3.1860741905428873,0.7080682245385359,56.49592347349694
183.6857665,0.3626290815622903,0.3137624976375263,26.846423462910835,3.2131118467590443,0.7098248034225232,56.975533791782475
183.71565850000002,0.3625212904969791,0.3137092469157099,26.839784461598345,3.180183957844134,0.7077518181614091,56.39182300180446
183.7454325,0.3624126814521806,0.313656203149638,26.83317228655751,3.2482681650768357,0.7156221068425392,57.59928537081282
183.7749315,0.3623056588427857,0.3136036460906722,26.826621789968186,3.264352254946029,0.7172884295099514,57.88466868044409
183.80506350000002,0.3621989561478279,0.31354995792051044,26.819931351983804,3.063047496461434,0.6923244209414867,54.315228309077966
183.835215,0.3620872587758144,0.3134962316278382,26.813237210870287,3.25936263784254,0.7161190700275756,57.7965487296541
183.86462649999999,0.3619803280964035,0.31344382065332344,26.806707964142195,3.2831943644379744,0.7199419011358276,58.21931992250426
183.8943965,0.3618739100794083,0.31339076752975004,26.800099735051234,3.153014663596048,0.7032807262961095,55.91107629356685
183.924376,0.3617642919896589,0.3133373376790418,26.793445613347068,3.224568657221008,0.7115771481173072,57.180089061733376
183.9539665,0.361656266944135,0.313284597770081,26.786878432053413,3.2765826049547218,0.7168051872014688,58.10260982484963
183.983519,0.3615493863942015,0.3132319222630511,26.780320276895836,3.23649659899584,0.712545410376936,57.39195147693679
184.01322399999998,0.3614415511194128,0.3131789715684637,26.773728874450136,3.2257155021262878,0.7116660666388336,57.20094762071217
184.043093,0.3613334761981841,0.3131257251171864,26.767101680437428,3.1823235938658376,0.7074154487822454,56.4316610035075
184.07278250000002,0.361224361157266,0.31307279524188286,26.760514906562605,3.2782446514395804,0.7180797728361809,58.132791850075535
184.1022205,0.3611175049791827,0.3130203103613329,26.753984511571094,3.255808282271761,0.7165820186263234,57.73510451540788
184.131895,0.3610101329882538,0.31296740040951343,26.74740223729505,3.2001790765416986,0.7095377708755285,56.748807278925625
184.1617335,0.3609014689073498,0.3129141945695428,26.74078417526117,3.199700424157649,0.7104634860521746,56.74049328549635
184.1912595,0.3607928153705539,0.312861542511811,26.734236004930526,3.2931293559029737,0.7212488187719227,58.397451707312946
184.22085800000002,0.360686340867015,0.3128087577138655,26.72767233334745,3.1764449531263597,0.7080788362857129,56.328444738431415
184.250628,0.3605770712771942,0.31275566356451395,26.72107121175434,3.2382701583714444,0.7151592604377307,57.424977419023804
184.2806,0.3604692597780911,0.3127022055855371,26.714425886118946,3.115589901582658,0.7011553222023449,55.249630851386925
184.31062150000002,0.3603584272397393,0.3126486557144319,26.707770173766754,3.220747707387213,0.7130968819024303,57.114599989593735
184.339884,0.3602501660842564,0.31259645619798254,26.701283295053972,3.3438237588229405,0.7291799678127155,59.29732726555405
184.36938300000003,0.3601447861942126,0.31254383130482355,26.694744551602422,3.1439591741260076,0.7051266133680286,55.75321990691741
184.3992445,0.3600347102999744,0.31249055613378734,26.688126029519808,3.223062541887733,0.7151806172410874,57.15617040000792
184.428717,0.3599265954977618,0.3124379714069255,26.68159428903833,3.2543595985566776,0.7195560441881899,57.71135152547809
184.45838750000001,0.359819274142023,0.31238502982004673,26.675019230884537,3.1570863239335467,0.7074303582574685,55.98652174544235
184.4883785,0.3597096234021871,0.3123315126838758,26.66837372158603,3.154872319675039,0.7076367634210003,55.947431988943315
184.5181905,0.3595998689541798,0.3122783112842444,26.661768444129624,3.213686012405442,0.7145218140956944,56.99058869898844
184.5477395,0.3594914384002594,0.3122255755903491,26.655221995371047,3.2420265450133248,0.7168149560720423,57.49334629715127
184.577124,0.3593835203184288,0.31217312987391405,26.64871253910118,3.274990711203364,0.7198323933871607,58.07810067319413
184.60679449999998,0.3592762069241489,0.3121201700406984,26.642140278934356,3.1643032977352807,0.706626491885179,56.11536107514898
184.6366865,0.3591661048715123,0.31206681110875933,26.63551951441617,3.2119157335679596,0.7130262075510875,56.95988921027963
184.66668149999998,0.3590570792280242,0.31201326453040584,26.62887649918357,3.133732066283649,0.702142215370796,55.573556975847495
184.69658900000002,0.3589461306078003,0.31195987036416783,26.622253421846175,3.2340761027209175,0.7148572887812226,57.353233042681296
184.7262485,0.3588376568028465,0.31190691520020875,26.615685814109586,3.202190459474459,0.7119734679033761,56.787945058113756
184.7557665,0.3587284373945514,0.31185420894778626,26.609150080574828,3.2726227487905892,0.7207102311891463,58.03717411116664
184.7853605,0.3586209139267376,0.3118013632439049,26.602598059706015,3.174346352052444,0.7096378593239309,56.294497416018565
184.81505049999998,0.35851104666015,0.3117483423265158,26.596025326339575,3.2386724296503573,0.7177826055625497,57.43544449011394
184.844626,0.3584027291516105,0.3116955220982493,26.589478478251635,3.209222153983342,0.7127049470077118,56.913338982804405
184.874163,0.3582936134452785,0.31164276684121844,26.582940685954036,3.2559993143164676,0.7172733584930109,57.743075138099435
184.904158,0.3581854901872652,0.3115891896729806,26.57630206236273,3.078304943544982,0.6980802174025994,54.591947111267565
184.93397,0.3580729135369068,0.31153593548053476,26.569704481886752,3.315073262308149,0.7265318156111125,58.79107587482776
184.963755,0.3579660475928068,0.3114827256211325,26.563113413085183,3.084062857929401,0.6971840039852262,54.69439587240469
184.9938835,0.3578535763340115,0.31142889813107616,26.556446875262434,3.20762298621248,0.7111677913006024,56.88585271975028
185.0235545,0.3577440899880921,0.3113758840813806,26.5498821007736,3.2253437648091317,0.7142648909643108,57.200298036108585
185.053027,0.3576348973842908,0.3113232208233316,26.543361765807838,3.275270330654656,0.7197296314784014,58.085903760792604
185.0826405,0.357526784450879,0.3112703017136003,26.5368107577986,3.1916438756314633,0.7094710645349519,56.602987091713075
185.1122995,0.3574164613719102,0.3112172973576033,26.530250205970507,3.2757593381205146,0.7176574653216043,58.09493070051575
185.1420845,0.3573079229285492,0.3111640638419009,26.523662306365477,3.167883568051065,0.7035032376318188,56.18194800525861
185.17188099999998,0.3571965776162317,0.31111080576437977,26.51707238597616,3.28274841185504,0.7171702181777178,58.21923771862567
185.2012655,0.3570878635549138,0.31105828015141485,26.510574095465607,3.3003876668658347,0.719110266134644,58.532245399436874
185.23089800000002,0.3569794704610939,0.3110053072522409,26.504021471711848,3.2079544450268824,0.7074219133246972,56.8931194866539
185.260817,0.3568688327981207,0.31095181811801176,26.4974060131745,3.2092486731307495,0.7076321113264588,56.91624804332045
185.2904495,0.3567582299487059,0.31089883714151395,26.49085441526445,3.2936716305007665,0.7187187708992234,58.41367336003485
185.3198795,0.356649619478123,0.3108462142206993,26.48434809148255,3.2714584868473353,0.7163449725781701,58.019896419154456
185.34983649999998,0.3565404236106636,0.3107926448758237,26.477725771881314,3.1342093682254357,0.6996777208018301,55.58593051857741
185.37980499999998,0.3564278195344525,0.3107390508010133,26.47110142521587,3.265233628816212,0.7149029380832457,57.90985499978495
185.4093805,0.3563184461510226,0.31068615544620753,26.464564451922435,3.2475433720561067,0.7129872386141066,57.596288746670545
185.4388605,0.3562086602007553,0.31063342682287926,26.458049082256835,3.292822420044036,0.7185863658323506,58.39950550878628
185.4687295,0.3560999036446259,0.3105799982663151,26.451448242464043,3.132095599755159,0.7007815754654155,55.54912289315651
185.498465,0.3559871399511107,0.31052680433608043,26.44487740591338,3.3409372910071133,0.7245604355458026,59.25320572397543
185.527735,0.3558792823284262,0.31047443905821154,26.438409919780135,3.2773143490393877,0.7162960682986835,58.12499615931868
185.557692,0.3557698802842961,0.31042084049890145,26.431791131802257,3.128696064476693,0.6984082708052815,55.48933941911278
185.58763,0.3556568295112247,0.3103672716643443,26.42517704245423,3.280463576036225,0.7166428829915068,58.18120867762657
185.616938,0.3555474756272028,0.3103148259551261,26.418702619610947,3.317408151661805,0.7230309617575711,58.83662313477132
185.6468375,0.3554390128230678,0.31026131752948605,26.412098019145457,3.0971316483811853,0.6953249766740097,54.93003001692865
185.676737,0.3553251680567014,0.31020780479920584,26.40549391213898,3.3114852827008834,0.7222532625079279,58.73193891232325
185.706072,0.3552166129367388,0.310155298185893,26.39901496780056,3.259842617746306,0.7163868484315867,57.81618829789494
185.73571650000002,0.3551068736660349,0.3101022333594433,26.392468145892355,3.2085429531692182,0.7111882519070841,56.90651740524954
185.76533,0.3549959226822392,0.3100492197531264,26.38592864880681,3.2647099528240817,0.718044840974397,57.902868649884866
185.795153,0.3548863215383053,0.3099958267734637,26.379343369778343,3.1438699021643015,0.7026723123060375,55.759822033421024
185.82485450000001,0.3547737150761172,0.30994264698461393,26.3727853978345,3.300275596874273,0.7224539567984358,58.53402000481477
185.85439200000002,0.3546649265246279,0.30988975652871464,26.366264108040852,3.185677931283279,0.7100477095758932,56.501676444071116
185.8839175,0.354553447854143,0.30983688325459596,26.35974593575456,3.294416996328117,0.722520169077703,58.430467301733586
185.9133095,0.3544446568300363,0.3097842447570419,26.35325769851785,3.217840331841375,0.7147806741864944,57.072460675752275
185.9430375,0.354334080605039,0.3097310001428302,26.346695757874002,3.185116343762244,0.7101281737980056,56.49223272184449
185.9727655,0.3542226879832307,0.30967775111820284,26.340134286056227,3.2173518199063738,0.7139435286204461,57.06414639664116
186.002684,0.3541120173619727,0.309624156399865,26.333531239091922,3.1286797268506086,0.7047609478296418,55.49159656871783
186.0326865,0.3539991053381085,0.3095704066898371,26.326910126214127,3.190284960206897,0.7111126333237097,56.584428448720935
186.062052,0.3538877111922762,0.3095177937739047,26.32043004671428,3.3240704347492303,0.7276987767741534,58.95749067207685
186.09155500000003,0.3537794680879773,0.30946493011012055,26.313920078333567,3.149611148361701,0.7071836600087531,55.863357611815246
186.12118,0.3536669503782157,0.30941184339809363,26.30738364534774,3.2853381525091767,0.7226212243437206,58.27086987442351
186.15097250000002,0.3535577015132887,0.30935845202291956,26.30081071347991,3.0972581161008677,0.7010360969589027,54.93513038914975
186.1807005,0.3534438326276228,0.3093051717146964,26.294252467916547,3.2988171550429017,0.725084585642468,58.51030169165878
186.2101045,0.3533349731810494,0.3092524676380093,26.28776614577194,3.1860723476683384,0.7123044255743416,56.51074658636147
186.23992800000002,0.3532234359837184,0.30919900709740694,26.281187736309672,3.164743598424929,0.7098385311716834,56.13261557968666
186.269408,0.3531113368705097,0.30914615778679194,26.274685540449454,3.2964013475193843,0.7256282514458627,58.46798871350695
186.298716,0.3530022813170146,0.3090936123580719,26.26822171819169,3.2276564004455732,0.7154661809453626,57.248838763816906
186.328444,0.352891377821838,0.30904030936011584,26.261665708799853,3.1796907448232425,0.7101932037717265,56.39824663976576
186.3583515,0.3527790747002372,0.30898667986074985,26.255070562062862,3.186472895673124,0.7080351223373695,56.518716417072554
186.38797599999998,0.3526667265531013,0.30893355321383814,26.24853826342744,3.275331401284345,0.7197978895851055,58.094984410417396
186.4175245,0.3525564534081977,0.3088805582674626,26.24202315885836,3.208648694173698,0.7127582268365821,56.9123982016797
186.446974,0.3524445800518471,0.3088277362974749,26.235530313891285,3.3000811798861243,0.7230579309161386,58.53433130997776
186.47661399999998,0.3523349569541833,0.3087745680067751,26.228995901508558,3.1439737103506804,0.7039013860711715,55.76558648907218
186.5067235,0.352221553552054,0.30872055275313975,26.222358426218378,3.151233536838708,0.7066897176724253,55.894530092300975
186.53634849999997,0.3521082998726507,0.3086674019628727,26.2158281899152,3.2943290829802727,0.7235287091158679,58.43284469638827
186.56563799999998,0.3519984471736839,0.30861484849135745,26.209372328829673,3.256765386676918,0.7188967829503419,57.76673713801077
186.595385,0.3518876243139237,0.30856146943284873,26.202816054226016,3.1519337425591423,0.7050562043685595,55.9074622368166
186.62536849999998,0.351774227620207,0.30850766117626327,26.196208087885942,3.1768659671881707,0.7099732328382877,56.349872535777834
186.65508499999999,0.3516615240949718,0.3084543272921939,26.189659392001076,3.224468975483967,0.7165161262310593,57.194409801199676
186.684538,0.3515500429676766,0.3084014616112517,26.183169182038593,3.2498795061920647,0.7190096321092324,57.645307726157036
186.713877,0.3514392308556537,0.308348795868774,26.176704504630862,3.253062754777661,0.7207572588765675,57.7019462160925
186.74336449999998,0.3513285145286118,0.3082958588339062,26.170207518350296,3.2050210143463036,0.715177422202221,56.8499681969972
186.772814,0.3512164846989652,0.30824298527660987,26.163719315282954,3.27588675900235,0.721781528675891,58.10714640220893
186.8023895,0.3511059597094738,0.3081898807152232,26.15720376358321,3.17792800938796,0.7093851100391478,56.369742479203985
186.83223199999998,0.3509928797920042,0.30813629186468294,26.150629806988103,3.200846327092074,0.7122986888838142,56.77644038285527
186.8617425,0.350880238155709,0.3080832943633724,26.14412939505634,3.2862936121995876,0.7217582691899044,58.292277702887
186.89120350000002,0.3507695721639856,0.3080303809516935,26.137640290499792,3.2155089306435287,0.7128827232829179,57.03687283945106
186.921046,0.3506572073869771,0.3079767774353111,26.13106756589824,3.1620643965211204,0.7073499846705299,56.08904397025011
186.95100250000002,0.3505435545409434,0.3079229641629902,26.12447014570567,3.1766794448867306,0.7096759022031494,56.34846197017714
186.980387,0.350430226537796,0.30787017355017926,26.117999098759142,3.3425956309964953,0.7296129141798078,59.291690846395475
187.00964950000002,0.3503208108805528,0.30781759730786107,26.111555310289887,3.22102758865898,0.71343003137748,57.13546341972366
187.039557,0.3502083099372904,0.3077638572138792,26.104969890751928,3.1525268621155846,0.7045918336229284,55.92055201191536
187.069407,0.3500939037362697,0.307710215411613,26.0983975356831,3.249987035179189,0.7158459357454362,57.6495105562101
187.098925,0.3499817396889105,0.3076571652726425,26.091898674628894,3.2623639055165294,0.7174737684447786,57.86923304828836
187.1287865,0.3498697543765711,0.30760349276099896,26.085324583807406,3.14852697629296,0.703390539426838,55.850116648551484
187.15878149999998,0.3497548812971909,0.3075495751901116,26.078721502962843,3.221567997225999,0.7107792868502968,57.14593160858455
187.18827299999998,0.3496417815035505,0.30749655767923223,26.072229651675304,3.3054476332595613,0.7211002592070083,58.634013444731735
187.217524,0.3495306361181134,0.3074439676009907,26.065791120320817,3.2990079682961255,0.7210176511525251,58.51996008097959
187.246981,0.3494192673307586,0.30739100219124976,26.05930762589692,3.242417221134691,0.713725913756626,57.516291891208624
187.27644199999997,0.3493064566558735,0.30733802458961335,26.05282363094553,3.298655731503243,0.7208670324827778,58.51406896242852
187.30611299999998,0.349194959575514,0.30728466429117773,26.046293799794494,3.177240481706608,0.7063869029292178,56.360485976769006
187.336024,0.3490804494164468,0.3072308672126097,26.03971153708329,3.22148745267355,0.7122853747402075,57.1455519614588
187.365668,0.3489670237981208,0.30717754522126134,26.033188411685845,3.2558763651094074,0.715662267880613,57.75574985468443
187.395377,0.3488544477262472,0.30712410117078814,26.026651361688874,3.1951897710820414,0.7096483792357654,56.67940934153022
187.42495200000002,0.3487404255132389,0.3070708930484036,26.02014417112522,3.2897484841815587,0.721220093772391,58.35696337538284
187.454321,0.3486287722463222,0.30701805046172514,26.01368267344862,3.253197657837378,0.7173480570345778,57.708762643952404
187.483923,0.3485162222705047,0.3069647835116143,26.007170282619626,3.2153628151524014,0.7132737311575561,57.0377820102386
187.513319,0.3484026903500687,0.3069118821290675,26.000703576631203,3.317956213278633,0.7245313633612854,58.85788036077732
187.543097,0.3482916150474408,0.3068582880809908,25.99415320523622,3.098630065355556,0.6990724342454858,54.96738020768341
187.57293600000003,0.3481750614814506,0.3068045789666659,25.987589786356505,3.2940870965051414,0.7229821980177094,58.43482255716228
187.60249950000002,0.3480634200077508,0.3067513605152223,25.981087331091068,3.17609455148285,0.7090875771567543,56.34188927933677
187.6321775,0.347948870574873,0.306697930699185,25.97456005462939,3.2541408474162856,0.718773543780751,57.726558391972944
187.661604,0.3478362528674443,0.3066449484557786,25.968088449447112,3.2501811947636194,0.718495741917292,57.656492422028734
