T(K),Fc,X,m(mol/kg),cp(J/gK),cp_err(%),cpm(J/molK),cp_SMA_1K
181.5049275,0.745014204625612,0.3176397845362456,27.332606321553776,3.404662775350796,0.4539568005457429,60.35866405203355,
181.533194,0.7449741123150194,0.3175896140723032,27.32628003816324,3.3284233268751424,0.4524785198722953,59.00724377113929,
181.5613575,0.7449336366737189,0.317539624570417,27.319977498438647,3.464217954677581,0.4564234080423245,61.4148268464261,
181.589514,0.7448938098273539,0.317489645630016,27.313677213225805,3.3395954863717225,0.451199698225432,59.20564815252784,
181.6180405,0.7448533256423044,0.3174390080103163,27.307294836658627,3.264236560439726,0.4504849766103049,57.86982468950797,
181.646109,0.7448124146157594,0.3173891814957274,27.30101561624395,3.617411189049955,0.4587877458613503,64.1312443648089,
181.674216,0.7447732092294512,0.3173392847401825,27.29472846251031,3.2507364473090155,0.4505236301065233,57.630819973848624,
181.7027805,0.7447321594243063,0.3172885738522332,27.28833966706416,3.356410418828287,0.4523665809878507,59.50443940925434,
181.73099,0.7446916191259813,0.31723849124802,27.28203095721751,3.448635502449344,0.4560197244390128,61.13963700462032,
181.7590965,0.7446515545757064,0.3171885895651363,27.2757459577726,3.3995075234129275,0.4539668689416346,60.26883780917631,
181.787375,0.7446112800213696,0.3171383805338117,27.26942317560076,3.3315567961668773,0.4518887392216842,59.06433089616018,
181.8158325,0.7445706951214858,0.3170878516745106,27.26306105638273,3.282969591024836,0.4511917712984913,58.20311008103322,
181.8443395,0.7445298796599494,0.3170372328876911,27.256688558251305,3.2966474420037835,0.4526069852437718,58.44577247056127,
181.872515,0.7444891239257018,0.3169872007165737,27.250390838507563,3.4787638475698293,0.4560812862250896,61.67466499862834,
181.900614,0.7444492283258619,0.3169373023790879,27.244110883736187,3.359889116220373,0.4526577201665329,59.56731778711263,
181.9288545,0.7444086626969689,0.3168871507290146,27.237799972754846,3.429067650855536,0.4547253945703687,60.79395653081787,
181.957255,0.7443683332588105,0.3168367128659449,27.231453980242097,3.3088169749540217,0.4498767832773223,58.66220225930523,
181.9857695,0.7443272799639077,0.3167860704393352,27.225083192634145,3.401446135266937,0.4501543019058358,60.30460586528563,3.410623544784589
182.0139525,0.7442865945817169,0.3167360146777941,27.21878713518637,3.528591003722371,0.4551596050038891,62.558951445679824,3.4144630339534765
182.0421585,0.7442464625326422,0.3166859159750547,27.21248660017223,3.4067580861459508,0.4504098412897471,60.39913065630972,3.415169797451364
182.0705435,0.7442056820235158,0.3166354972118494,27.20614674625261,3.4345630499941824,0.4511381855342322,60.892267650071545,3.4144936409696505
182.0988675,0.7441650073424735,0.3165851846601681,27.19982118027704,3.445611978208326,0.4512068696062253,61.088334128255234,3.4142942138706625
182.127287,0.7441243725510759,0.3165347003076152,27.19347495064198,3.378661749667529,0.4481674393636028,59.90152684170685,3.4190120867896634
182.155592,0.7440833941749264,0.3164844171860398,27.1871549489874,3.515563130909608,0.4523039946555494,62.32888200443955,3.413138711066423
182.1838895,0.7440430589904576,0.3164341452127014,27.180837278025898,3.395403532641159,0.4497948025662899,60.19869688836464,3.4152238130042325
182.2123205,0.7440020725748859,0.3163836338652329,27.17449046078364,3.453893762988272,0.4509647825228764,61.23587579573413,3.4208149686535183
182.240744,0.7439613243041818,0.3163331336196424,27.16814597604137,3.413872299876788,0.4505078001538131,60.526490656710095,3.418107807747252
182.2690035,0.7439203296712402,0.3162829225368068,27.1618387488009,3.553385800457733,0.4526410093767519,63.00018745227384,3.4179902124553427
182.296946,0.7438800237471475,0.3162332725077582,27.15560290875798,3.5892504965800374,0.4541635242221658,63.63623705289413,3.422877238900902
182.3252435,0.7438399120839349,0.3161829894615291,27.14928848727805,3.336219912326884,0.4492410300136504,59.15025898739287,3.427720235665216
182.3537965,0.7437985548669884,0.3161322501173674,27.14291770626842,3.427975534164529,0.4489753340841482,60.77723858330931,3.432542909974831
182.3820745,0.7437576779530546,0.3160819971744882,27.13660892905186,3.4799334749028272,0.4521753548629836,61.69861992670748,3.4348899652640035
182.4102995,0.7437170829961403,0.3160318361415912,27.13031261475933,3.441197891919217,0.4519177822226929,61.01202110260429,3.435402340534458
182.4385015,0.7436763291709982,0.3159817136985995,27.12402206673815,3.472521428768098,0.4535336957678994,61.56756145601967,3.4341172033076472
182.466856,0.7436357710638026,0.3159313179057967,27.117698141711283,3.335426195360419,0.4506324142523245,59.13704433598266,3.439497328818235
182.4950775,0.7435945476236393,0.3158811561796562,27.111404513807333,3.5390448962618577,0.4548724327794504,62.74738150609262,3.4443332768099637
182.5232605,0.7435543437494576,0.3158310605605108,27.105120101177825,3.3531600493012066,0.4504448134025599,59.45180874376262,3.443659806694506
182.551615,0.7435132014503394,0.3157806577405499,27.098798079431457,3.44055247781761,0.4531026219736357,61.00146102075692,3.4445268052056646
182.580008,0.743472472937922,0.3157301840997781,27.092468107951333,3.332615537907134,0.4497776765253044,59.08789634589519,3.4486708298922295
182.6084125,0.7434311892299735,0.3156796876152707,27.08613620600328,3.429362112604751,0.4518656400780934,60.80340814286704,3.4564753301943543
182.6366715,0.7433903975487929,0.3156294473990235,27.079837365583693,3.411843038736554,0.4519422391133022,60.4929659334768,3.4555653823159744
182.6651215,0.7433495042002443,0.3155788651853303,27.07349658161779,3.323715015132332,0.4495096798086981,58.93060231866976,3.4524049919851896
182.693343,0.7433081301244152,0.3155286868083817,27.06720734698132,3.55210086655329,0.455321644350613,62.98014358594278,3.4553648394581264
182.7215145,0.7432678678101806,0.315478594913791,27.060929871505135,3.3538848707300413,0.4514510195171662,59.46586778806861,3.461426470663006
182.7499605,0.7432266081465781,0.3154280124635186,27.054591852207253,3.395391688196097,0.4516470811566179,60.20197758091565,3.4665125829137944
182.778174,0.743185521420534,0.3153778409817141,27.04830625273967,3.50260272176144,0.4535672316860442,62.10306190761344,3.458040362669756
182.8063225,0.7431449047597434,0.31532778263181,27.04203574477882,3.4524744777758376,0.4517326222999899,61.21443731826927,3.4551966624095374
182.83457,0.7431039762121404,0.3152775457435847,27.03574379415115,3.465441042840301,0.4510188017218945,61.44452015999906,3.4589023655739117
182.8626655,0.7430630427348823,0.315227576702497,27.02948630602782,3.5609107826908644,0.4533423212291294,63.1374424602442,3.45395980707559
182.8909365,0.7430225248427915,0.3151772930191094,27.023190337914425,3.377822250686285,0.4488286985559435,59.89132809328104,3.4555467027098463
182.9195315,0.7429810521625944,0.3151264304859086,27.016822833143195,3.3840878479171543,0.4477908151615146,60.00259771849149,3.455987237242701
182.947943,0.7429395639769679,0.3150758917709749,27.01049680402612,3.4971213678246,0.4517310959771246,62.00695347725282,3.4553934719912553
182.976057,0.7428985930399459,0.3150258797103336,27.00423761620221,3.5707043149774416,0.4531279272124692,63.31182454837087,3.459079657765479
183.004183,0.7428579380628771,0.3149758437588323,26.997976352945138,3.5050195496813585,0.4492425068947679,62.14735331295241,3.455322191765669
183.0325645,0.742816902064742,0.3149253506816021,26.991658814310327,3.437103034036497,0.4476932428404133,60.9433057813839,3.4555475871992987
183.0608315,0.7427754744460672,0.3148750587067407,26.98536736262367,3.579603914023961,0.452585944560665,63.470174156278446,3.454536744030364
183.08861,0.7427347407933198,0.3148256333156378,26.97918521913761,3.718769488782683,0.4560449054392196,65.9379152133189,3.457513217825859
183.116755,0.7426947033253183,0.3147755532377122,26.972922096854457,3.346813573924232,0.4467977894197759,59.3428947999678,3.463099404989595
183.1453845,0.7426528734495023,0.3147246083764721,26.96655176217803,3.404949469332152,0.4491252848623528,60.37388904541779,3.456471524257153
183.1737045,0.7426113959665938,0.3146742115794834,26.960250891362172,3.498998194193934,0.452629282702324,62.04166733201019,3.461099484056054
183.201544,0.7425704358005581,0.3146246672472359,26.95405750339007,3.6660508551590407,0.4572187016906637,65.00390807293621,3.4535556100807088
183.229193,0.7425303270731974,0.3145754593645095,26.947907060210618,3.591886228654388,0.4545618049766429,63.68905220841199,3.457569120493768
183.257521,0.7424898919447589,0.3145250403700031,26.941606157308257,3.256858091916392,0.4477003702605077,57.74871321629097,3.4592607973975107
183.2859975,0.7424477744655681,0.314474354331452,26.9352728159069,3.4897209874724107,0.4533744075046071,61.87788336326519,3.455301182322778
183.314074,0.7424068759620766,0.3144243775603779,26.929029016077774,3.465919523079968,0.4535883585829002,61.4560254005052,3.456023198838222
183.342524,0.7423658937070383,0.3143737332002902,26.922702740225077,3.2549859867232707,0.4489483713721627,57.71602137526072,3.4506465869809926
183.3708135,0.7423238747042916,0.3143233717896504,26.91641273590717,3.535474822101811,0.4569480651354327,62.68971154587937,3.4444227065182376
183.3987145,0.7422833301244212,0.3142736992841591,26.91020967901915,3.456616600569115,0.4535594268379023,61.29160262432994,3.4405865517577663
183.426745,0.7422424142653808,0.3142237935062256,26.903978396228855,3.451739644967493,0.4534395175086325,61.20530204901712,3.447217047913389
183.454764,0.7422014612562294,0.3141739054631799,26.897750234218563,3.46444269745827,0.4541157869291484,61.43072569882399,3.443200754530202
183.482859,0.7421605485096539,0.3141238793378017,26.89150574341705,3.407533586268495,0.4533369698067171,60.42180020590916,3.44128590910532
183.5111295,0.7421193427352015,0.3140735379090741,26.88522281448119,3.3610488894782624,0.4534171746050068,59.59771443612485,3.4385601592770834
183.5394005,0.7420778860142698,0.3140231927605904,26.87894034356261,3.405172966904886,0.4525734127650734,60.38029243831507,3.4353303811341953
183.5675265,0.7420366477139012,0.3139731030076966,26.872690658044668,3.4367921207494514,0.4543662866255964,60.94113699667493,3.428345694092813
183.595263,0.7419955841692746,0.3139237041487226,26.866528068955297,3.624878663335521,0.4600408190861264,64.27646720603111,3.42020088416132
183.623427,0.7419554554856073,0.3138735410831902,26.860271051908303,3.1798672131010792,0.4488632858723501,56.38567258154555,3.422690747977896
183.6517895,0.7419131091406086,0.313823021576081,26.8539704992536,3.48569360809387,0.4579782611411284,61.80879184618827,3.424469447841314
183.679934,0.7418723684947425,0.3137728874899258,26.84771893156165,3.288065277416208,0.4499067222744782,58.30458791873664,3.4218753926407603
183.708052,0.7418306290925746,0.3137227977278849,26.84147380312271,3.4943577351871222,0.4583610257918104,61.9627831757093,3.4063277637103995
183.735884,0.7417899354271719,0.3136732146012757,26.835292739136374,3.454600379827064,0.456522201051822,61.25797131042148,3.4025109249143846
183.763964,0.7417490036298581,0.3136231867736866,26.829057143520934,3.36401619414583,0.453893900174601,59.65187834066372,3.405011488380012
183.7920325,0.7417075516711824,0.3135731765251701,26.822824647446108,3.477745055816365,0.4555953600357814,61.66873487844295,3.406199745731684
183.8202805,0.7416666227457389,0.3135228435073065,26.81655284333428,3.2772596278372705,0.4493123097175968,58.11381744447745,3.4009708399374214
183.848788,0.7416246122544754,0.3134720450912185,26.81022398016949,3.343074966494444,0.4523948071854283,59.28105766857388,3.4040621272846714
183.877379,0.7415828896972448,0.3134210948283859,26.803877139471883,3.243556834069778,0.4503494642116805,57.51652181889987,3.4013877669161605
183.905516,0.7415406014822737,0.3133709506099931,26.797631626880676,3.6161552133639496,0.4579226101569814,64.1238251227221,3.4017316488220986
183.9334435,0.741500181782583,0.3133211767938914,26.791433150331716,3.3565510994130507,0.4526717938357337,59.52054055486548,3.3939295289547875
183.961539,0.7414584777346254,0.3132711005736597,26.785197921257264,3.5036847251065657,0.4550727112432569,62.1297886864028,3.396944821260301
183.9895235,0.7414175331397952,0.3132212192047207,26.77898785802541,3.4096183056930927,0.4539165168181392,60.46191091358478,3.39838555209374
184.0178015,0.7413761241811667,0.3131708116375608,26.772713201221023,3.324060799035408,0.452006586044457,58.9449122002195,3.3975699672074455
184.046194,0.7413342841946847,0.3131201968728241,26.76641367941315,3.335139867575593,0.4532757765005443,59.141547617022844,3.399152983291743
184.0743885,0.7412925061714261,0.3130699319983571,26.76015862373075,3.433701141180419,0.4543348383517503,60.889496627625405,3.3977930384632966
184.1024115,0.7412512175443862,0.3130199698172685,26.753942142869423,3.4339588075043825,0.4555074269059491,60.894241108362685,3.38996925749901
184.130377,0.7412099132124667,0.3129701071032884,26.747738939528077,3.467203964551776,0.4552911083071345,61.48395267504985,3.40000828223672
184.1583885,0.7411687627562781,0.3129201593038038,26.74152605373205,3.408206262174585,0.4546495025033955,60.43791994075176,3.405497233511736
184.187018,0.7411272912884295,0.3128691063519452,26.73517663414177,3.121883842596392,0.446710377457769,55.36071067168274,3.409845163401249
184.215563,0.7410842852286322,0.3128182008628631,26.72884649374697,3.4582968707938857,0.4561195978251607,61.32653990702372,3.40429965807335
184.243708,0.741043030952011,0.3127680055488447,26.72260558247348,3.344377813213332,0.4522771440674134,59.30656629448711,3.407884397892437
184.2717385,0.7410011730875443,0.3127180113068282,26.716390577128028,3.531309994780936,0.4580811811558206,62.62165500249798,3.4026079615622438
184.299891,0.7409602255092499,0.3126677963089352,26.7101490387577,3.2829078202807778,0.4499558703965333,58.21684192604263,3.411321424944678
184.328345,0.7409179749254756,0.312617040299726,26.70384118139272,3.36318104387702,0.4530829457691496,59.64052679302844,3.4143568393843107
184.356543,0.7408761041442259,0.3125667377218311,26.69759059460795,3.441872209203916,0.4542691564871852,61.03616308828588,3.4156128128123866
184.3845925,0.7408345781011183,0.3125166968611004,26.691373436312148,3.468652467276962,0.4540295615230945,61.51124599213146,3.416454372296251
184.4131495,0.7407931145296662,0.3124657473253387,26.68504431255352,3.178665449611597,0.4474372009816649,56.36893526869854,3.4147834681638902
184.4415725,0.7407500538718416,0.3124150335587281,26.678745408302888,3.569977928151252,0.4553640572262358,63.30846890502347,3.412444294769813
184.46953,0.7407089547521227,0.3123651471310582,26.672550170188423,3.457959165438849,0.4515136657478934,61.32215211721698,3.4101449464758224
184.497923,0.7406672399113485,0.3123144803197833,26.666258938732465,3.3325034184579585,0.4497788510074322,59.09753943764031,3.40910837012777
184.526335,0.740624818217996,0.3122637762689774,26.65996401128857,3.4605785298553013,0.4517800065856643,61.36896139359201,3.4150924132892646
184.554663,0.7405830144630206,0.3122132187902423,26.653688204934728,3.3891940517538304,0.4496068518135594,60.10322349768749,3.419252067832668
184.583201,0.7405408088063157,0.3121622831405602,26.647366388370752,3.3510463295854773,0.4480221654245589,59.42689457363278,3.4210858634221313
184.611521,0.7404983491700418,0.3121117332175182,26.64109337140991,3.5312330789209345,0.453302467793087,62.62247861425568,3.418461068448091
184.6393035,0.7404567575664968,0.3120621394348253,26.634939903040685,3.6778069027194418,0.4578228348584919,65.22198820939003,3.4147548276635504
184.667239,0.7404158612447832,0.3120122692546209,26.62875303456174,3.440242823549159,0.4495761674155866,61.00921759905621,3.421994675410183
184.6957955,0.7403737831128968,0.3119612870568761,26.62242913685792,3.30026504871065,0.4471975654811665,58.52702564161654,3.430659102582811
184.7240775,0.7403310092796228,0.3119107915107561,26.61616652778143,3.58006627349511,0.4552257607840743,63.48921590067612,3.4375369196457344
184.752539,0.7402897141868223,0.3118599720343351,26.60986467185786,3.179340922589066,0.4460300431129008,56.38288173617735,3.440837618967757
184.780638,0.7402463728677708,0.3118097964163028,26.6036435705353,3.782716274201578,0.4616179831678372,67.08341952533519,3.433316007946111
184.8083555,0.7402061240115559,0.3117602987057955,26.59750740941135,3.383499133224404,0.4519244210606562,60.00379692455898,3.4368126650751605
184.836737,0.7401638847137152,0.3117096117920372,26.59122473905523,3.3870340364771,0.4505938163674384,60.066661179868014,3.442241677503112
184.8653245,0.7401216272842656,0.3116585534508418,26.58489696552784,3.273011416005033,0.4465830660530063,58.04472113584263,3.4471791456046645
184.8936255,0.7400787408962648,0.3116080033068245,26.57863309870432,3.557673568731321,0.4553897482338419,63.093202374076654,3.444365525100163
184.921923,0.7400373038474598,0.3115574559166132,26.572370492912142,3.2746800306203414,0.450048359817091,58.07465120615357,3.447863173123924
184.9504495,0.7399943941172475,0.3115064959134142,26.56605769699117,3.4232075348168904,0.4515685025948935,60.70888314041693,3.450938289730777
184.978804,0.7399522412878115,0.3114558396230624,26.55978345034587,3.373338133511256,0.4484589881498015,59.8246487161834,3.4449439686279653
185.0069715,0.7399098107241329,0.3114055138973423,26.553551061275773,3.5335023096877194,0.4540636851380069,62.66527071788791,3.448059633500655
185.0349675,0.7398681828180618,0.3113554910967985,26.54735708947805,3.4807277765947187,0.4524531734397394,61.72951308625685,3.4485953744462265
185.063055,0.7398262310780596,0.3113053012990722,26.5411433438924,3.497883986811628,0.4532866800346408,62.033951974429726,3.4478035215317258
185.09141,0.7397842972199183,0.3112546299273639,26.53487089574584,3.342090983412978,0.4493860869283299,59.27118155296149,3.4460413540206978
185.1200625,0.739741512976879,0.3112034232494315,26.52853312128404,3.3374855370928707,0.4478797644002054,59.189679694894096,3.4409950723229383
185.148192,0.7396986562624684,0.3111531476618198,26.52231150320413,3.6616009333067248,0.4556094510430796,64.9379935262216,3.433975517249817
185.176188,0.7396574021341107,0.3111031071269835,26.51611987471801,3.4251387936383746,0.4501347187564308,60.74454483795407,3.4264325699343154
185.204142,0.7396149111097912,0.3110531381165604,26.509937993619484,3.699020467996201,0.45659790657716,65.60200187615952,3.424073941992972
185.2320505,0.7395737502971363,0.3110032468906507,26.50376663015814,3.459902289484132,0.4496444701632825,61.361425515203365,3.4186701977162897
185.260691,0.7395313621706906,0.3109520433891811,26.497433872232293,3.268053609023321,0.4451527195267231,57.95915691208666,3.420950496397794
185.289408,0.7394879759612458,0.3109006993440114,26.491084677100805,3.4052908197975023,0.4496838804898061,60.39324699521345,3.407584690804941
185.317622,0.739445324381334,0.3108502509318588,26.484847157245994,3.5531964788553125,0.4537953982218717,63.01655501444485,3.4083311128153633
185.3454805,0.7394034113121704,0.3108004345678424,26.478688680867904,3.6146835927582615,0.4548973430069018,64.10722362584612,3.401821454988337
185.373648,0.739361792183105,0.3107500619938643,26.47246234902025,3.3701757496193934,0.4482339400521076,59.770995694960426,3.405829291968685
185.402331,0.7393189189198691,0.3106987637457532,26.46612253392347,3.3010831304432555,0.4467081940842417,58.54579208425654,3.395917287706034
185.430449,0.7392757191429884,0.3106484722452505,26.4599080560693,3.677607009391097,0.4568274903490172,65.22375556277194,3.3990207666529146
185.4586125,0.7392345079602148,0.3105980956494958,26.453683972055565,3.2481579268404235,0.4482178455929937,57.60748035289084,3.3951037588708353
185.48712,0.7391911371258911,0.3105470999348459,26.447384321611462,3.4415516890021043,0.4541252820459964,61.03758138198248,3.387518873910672
185.5151545,0.739148859152417,0.3104969466062753,26.44118964247776,3.4793294629503144,0.4551258653085048,61.70776675266238,3.3808920490096863
