T(K),Fc,X,m(mol/kg),cp(J/gK),cp_err(%),cpm(J/molK)
175.134318,0.5622484398740074,0.32892747062739613,28.77998314969911,2.1212842638516016,0.4113773108764895,37.58216097012068
175.16379799999999,0.5621785923321636,0.32887519422122685,28.773167726594206,2.191340483732274,0.4125078079416855,38.823443187436915
175.1931405,0.5621092631099663,0.3288231633031805,28.766385362679348,2.2372310338759194,0.4101223860218845,39.63659377895001
175.2225785,0.5620400251350326,0.3287709646890429,28.759582195718774,2.2422352528160796,0.40808010239752135,39.725372160642614
175.2526845,0.5619702051420227,0.32871758328338874,28.752625967040153,2.128002345446063,0.39949583239483044,37.70163959666915
175.2825535,0.5618977702170914,0.3286646237721339,28.74572580936537,2.4061547266331105,0.410033457151707,42.629772279948135
175.31174700000003,0.561829029775604,0.32861286354737007,28.738982960034388,2.4265173979181913,0.4045558500373329,42.990665461253535
175.34126500000002,0.5617597472432556,0.32856052955667686,28.732166422659944,2.420759566152082,0.4012938192353796,42.88878327106533
175.3709245,0.5616894325229475,0.32850794626873325,28.725318484274855,2.5084833338770123,0.399906081724246,44.44312678531355
175.4006755,0.561619440407791,0.3284552023279358,28.71845070135125,2.5291756617452665,0.39689878824489555,44.809871766952824
175.4302315,0.5615486517275691,0.3284028056275273,28.711629200656265,2.724350454583698,0.3996524473056112,48.267965435255675
175.459883,0.5614795420281903,0.3283502411441166,28.704786925809245,2.6631083585679565,0.3908599136985033,47.183067680303225
175.4893135,0.5614082599456335,0.32829806992247795,28.697996900423927,2.9855358892626307,0.4004891377711704,52.89576945594239
175.51864849999998,0.5613401569100335,0.328246069447338,28.6912301470135,2.891999159746395,0.3880962977494687,51.23870060965468
175.548186,0.5612692860592259,0.328193711460537,28.68441792945605,3.142727055961562,0.39216202387026805,55.68111471226546
175.5776925,0.5612001837218086,0.3281414098567075,28.677614107839485,3.1539830457569566,0.3835970976635458,55.88071072187844
175.6076835,0.5611294185087191,0.3280882509028243,28.670699840501616,3.251780838479443,0.37893802104053004,57.613620243575625
175.63741950000002,0.5610579778532563,0.328035545357822,28.663845627067953,3.5613453356310214,0.38322318763246227,63.09853941236393
175.6670215,0.5609883804266692,0.3279830787086223,28.65702354922464,3.645354500337242,0.3759605449575897,64.58717673357751
175.6966235,0.560917533572925,0.32793061342514535,28.650202714083015,3.9547558284650854,0.378817534679561,70.06925841133517
175.726111,0.5608478952249101,0.3278783524156515,28.643409494562253,4.124218213024278,0.3729060288682193,73.07196581057106
175.7558195,0.5607775503736245,0.3278257010584295,28.636566603351877,4.348825642124848,0.36852060250006,77.05174341867595
175.785147,0.5607068213784528,0.3277737262283297,28.629812689080424,4.8534133730586975,0.3754543181592858,85.99219964872074
175.814528,0.560638245130035,0.3277216578551198,28.623047666399728,4.9440708181384965,0.3623674191061274,87.59872049656258
175.8442635,0.5605672204361785,0.32766896252106326,28.616202252187634,5.39419164493618,0.36303481535516074,95.57422204764526
175.873999,0.5604969185377491,0.32761626845224956,28.60935807526178,5.7320520600233325,0.35753124649719537,101.56073740826909
175.90374200000002,0.5604258515541485,0.32756356233959044,28.602513407046164,6.281943751450665,0.35766866417001686,111.30407964050107
175.9333095,0.5603554720620629,0.327511168439227,28.595710347597848,6.815260944744994,0.3565082108891233,120.7538094932207
175.9627055,0.5602851977488602,0.32745907962340826,28.588947952434037,7.467956365298386,0.35745117479222976,132.31876174083686
175.9920675,0.560215592736323,0.327407052215757,28.58219457511686,7.987852879356593,0.3532887528716005,141.53081800553358
176.0217535,0.5601454387191407,0.32735445186415313,28.575367889287353,8.455791095331529,0.3470864095506355,149.82232133598285
176.05127149999998,0.5600742493973107,0.3273021503296354,28.568581043664494,9.39627802105668,0.3541049813209916,166.48666165751487
176.08086250000002,0.5600048537144228,0.32724972057186263,28.561778618446866,9.732519122572967,0.34313053889835593,172.44482483390254
176.1105865,0.5599332740351106,0.32719705627512313,28.55494683061538,10.734084851183805,0.34876980118084505,190.19156092729676
176.14018049999999,0.5598632027858765,0.32714462339840483,28.548146125766536,11.345263798369562,0.3436646235693349,201.02132462978463
176.169596,0.5597921998840459,0.32709250783587906,28.541387627760205,12.522428832811913,0.3510347853060085,221.8796179420717
176.19884000000002,0.559722937970114,0.3270406971488629,28.53466970451888,13.179579123483027,0.3459029952872529,233.52408361510808
176.22816699999998,0.5596527109019402,0.32698874042507503,28.527933884442433,14.190638532030041,0.3478218136889264,251.43942436899263
176.257502,0.5595830116478941,0.3269367705239474,28.521197396348573,14.965296135048373,0.3444437824622707,265.1661314966485
176.287169,0.5595127044306947,0.3268842134460497,28.5143858546293,15.65473111876631,0.3392647930773153,277.3828886709845
176.3169995,0.5594413779896256,0.32683136770684806,28.507537974001274,16.67231226018346,0.33987457427960555,295.414095197118
176.3461935,0.5593702471296231,0.32677965049199764,28.50083737121239,18.483558685591493,0.3530435305109469,327.50826428365286
176.37548299999997,0.5593019186533466,0.3267277650184545,28.494116002874378,18.555770165446773,0.3370043409471965,328.7887557885721
176.405295,0.5592302887907517,0.3266749548795038,28.48727591490167,19.842692050492516,0.3403243866463077,351.5927305092886
176.43503049999998,0.5591594210442044,0.3266222811694916,28.480454566235796,20.800608982172147,0.3380837463758693,368.5671835345364
176.46434649999998,0.5590881132232153,0.3265703514406592,28.473730609181242,22.768548154902646,0.34945169693014455,403.4384187436406
176.4934525,0.5590192091439705,0.32651879454360855,28.467055952853723,23.43245256773878,0.3423192837018435,415.20344878084575
176.5230465,0.5589488632851588,0.3264663740706501,28.460270543972342,24.281504637576248,0.337854434736182,430.2492414791103
176.55274400000002,0.5588775817589472,0.3264137711018591,28.45346257411502,25.64580920320308,0.33962965563031544,454.42502812117783
176.5819305,0.5588066973176558,0.3263620740618011,28.44677288709802,27.725843265327807,0.3493531864169373,491.2831787181776
176.6112505,0.5587378197664029,0.32631014133675096,28.44005373575927,27.83930427344298,0.33630894135644596,493.29510828402186
176.6410965,0.5586662528548423,0.32625727772370133,28.43321520827598,29.14331496572959,0.3369088919869991,516.4029386431803
176.670584,0.5585948123674341,0.326205049848775,28.426459974739675,31.128219675614503,0.344245886185912,551.5759805315145
176.699721,0.5585249199635536,0.3261534434977004,28.41978615859149,32.47246953547784,0.34470398543418596,575.3971063030825
176.7289605,0.558455116690667,0.3261016563073765,28.413089983546463,33.46187460675699,0.34171829285747674,592.930676162883
176.758307,0.5583846902091048,0.3260496802977521,28.406370428552908,34.79532300697764,0.3420647134880773,616.560682152142
176.7878445,0.5583143309653211,0.3259973666880076,28.39960827447121,35.54096922741083,0.33719959743735717,629.7751663710934
176.8175415,0.5582429445374982,0.32594477126164384,28.392810750373435,36.937262074720984,0.33826305449089306,654.5190360823988
176.8467925,0.5581717760256916,0.32589296637337917,28.386116433713184,39.3192185106034,0.3474268951994559,696.7287890950388
176.875979,0.5581024875498143,0.3258412763347499,28.379437983534203,39.67290291410634,0.3396263035539521,702.9981022951346
176.905516,0.5580315853793493,0.32578896616159814,28.372680453350444,40.907273740042875,0.3391375756014826,724.8731613364263
176.9349195,0.5579605699540418,0.32573689300940334,28.36595458339582,42.66225007765706,0.3426092854943578,755.9734520332391
176.96425449999998,0.5578902656772453,0.3256849417405135,28.359245491276518,43.704480954671666,0.3406176133710706,774.4440636139044
176.993506,0.557819535820053,0.3256331388975942,28.352556596460072,45.53721504329611,0.3444835637634152,806.9225497697005
177.022475,0.5577495898587838,0.32558183687171094,28.34593338092983,47.20990284424535,0.3471838114750843,836.5651662059009
177.051638,0.5576801758639286,0.32553019179601045,28.339266894527665,47.40094040766628,0.33990930659819035,839.9528762378548
177.0809425,0.557609253340944,0.3254782966349258,28.3325691546984,49.160788912324904,0.3437715959224469,871.1403034575726
177.11011,0.5575391152773485,0.32542664456536397,28.325903812254637,50.19442066830755,0.34303930588320647,889.4591412255438
177.13950599999998,0.5574688087013542,0.3253745883164968,28.319187345928828,50.57836584430118,0.3384387264563696,896.2654472034678
177.16886,0.5573975264128004,0.32532260689345727,28.31248156808882,52.51159898361359,0.34397891571634176,930.5257698739243
177.198073,0.557327378470366,0.3252708755885979,28.305809082119197,53.16196044921858,0.3416398305224153,942.0532357585012
177.22741150000002,0.557256731568382,0.3252189224576587,28.29910901390684,54.04217123946341,0.3410219455528406,957.6538255540031
177.2567655,0.5571859348659705,0.32516694227623943,28.292406489601724,55.029099157877354,0.34125706284600377,975.1455959307209
177.285864,0.5571151691133754,0.3251154149103158,28.285763372082506,56.9212044037783,0.3470027199642085,1008.6777279240846
177.314909,0.5570455611032634,0.3250639826372504,28.27913352584038,57.02594583749447,0.3424715340253116,1010.5368055802546
177.344229,0.5569750097034127,0.3250120637431882,28.272441976748485,57.52735916049227,0.34051430611197303,1019.4252272613384
177.373469,0.5569040306791689,0.3249602868368149,28.26576975279878,59.01427427030314,0.34432966698187184,1045.7775300108076
177.4022435,0.5568338214842616,0.32490933451890813,28.259204788478154,61.10469986259476,0.3515773053925013,1082.8246322864877
177.431666,0.5567650471678056,0.32485723505015063,28.25249304383244,57.86397393157531,0.32966995626732387,1025.399431844864
177.46121449999998,0.5566916628358776,0.3248049127487522,28.245753635080185,62.026371198851166,0.3484920374835162,1099.1640108453948
177.490069,0.5566222359570128,0.3247538195853284,28.239173554168882,62.133638794379564,0.34537836073384737,1101.0681345277596
177.5190645,0.5565521613766188,0.32470247698698823,28.23256235255238,62.72163169364408,0.34510986689401324,1111.4912275194854
177.5482585,0.5564820093214161,0.32465078312535384,28.225906935582046,62.48664371682587,0.340717558980371,1107.3303017091491
177.5776315,0.5564109304299282,0.32459877251637975,28.219211766586863,63.08088425524437,0.3408993793628364,1117.8642333729283
177.6069585,0.5563398677521054,0.3245468435506196,28.212528135920355,63.78048969713771,0.3417740672920165,1130.2654130990422
177.635828,0.5562689665582683,0.324495724844637,28.205949795177748,66.23827222421784,0.3518173641513797,1173.8236746632647
177.664606,0.5562000748852931,0.32444476830766616,28.1993933143898,65.16699602742877,0.3439075401965593,1154.8427355743227
177.69406700000002,0.5561295727658889,0.3243926025383658,28.192682268482244,63.98725952691065,0.3357290064610073,1133.9397026786705
177.723612,0.5560573278005034,0.32434028815753035,28.185953144643605,65.60720171892152,0.3419298221942591,1162.6507490007284
177.752825,0.5559863733898692,0.3242885617443467,28.179300674694783,66.25221204036129,0.34335518697692985,1174.0847295739861
177.78171400000002,0.5559156922725934,0.32423740911339294,28.17272299971499,67.83896965927477,0.349640423350929,1202.2079083933586
177.81055700000002,0.5558462646854302,0.32418633800290886,28.166156800740858,67.07782322474401,0.3444336916459827,1188.7227566768033
177.83978100000002,0.5557757623809612,0.3241345923262484,28.159504885058535,66.54692707454365,0.34059772386516557,1179.3179745019522
177.86895950000002,0.5557044416158051,0.3240829272528237,28.15286434704906,67.75437621546423,0.34550775559241353,1200.7194811670333
177.89839,0.5556341153313052,0.32403081599601513,28.146167489138413,65.78224159873392,0.33486603493514455,1165.7735003897112
177.927477,0.5555615250116328,0.3239793129639361,28.13954980911128,69.84911355303471,0.3538792846371035,1237.8490825716958
177.95622450000002,0.5554928226049082,0.3239284110575499,28.13301035905561,67.77766817347522,0.34262462088923346,1201.1429541961195
177.9856665,0.5554218362889202,0.32387627940257524,28.126313941827615,66.96296042610679,0.3373473552633899,1186.7084253241544
178.0149675,0.5553497137888004,0.32382439736447793,28.1196506135496,69.04875364508985,0.3459496728201012,1223.6762279375625
178.04402,0.5552793674276417,0.32377295527322825,28.113044798136894,68.80858917026048,0.3430716752240214,1219.4236700552901
178.0733665,0.5552084075674106,0.32372099252900755,28.10637314456423,68.34441609676986,0.3390703505770869,1211.2012381148693
178.102435,0.5551365853911947,0.32366952193407966,28.099765690178018,70.93268973514424,0.3497215088990877,1257.0744107294208
178.13158650000003,0.5550669331367191,0.3236179042625291,28.09314036499649,68.62575005503733,0.3371745909637137,1216.1942734155573
178.16045200000002,0.5549946607343564,0.32356679287631446,28.086581019781242,73.03113610044664,0.3568241453392757,1294.2708994853667
178.1891005,0.5549263569611705,0.3235160655863322,28.080071947327312,70.10244617156906,0.3421642336837468,1242.3717646395978
178.21863,0.554855095958352,0.3234637781657852,28.073363708317217,68.8136062762262,0.33578306287974435,1219.5343224502935
178.247973,0.5547824542774169,0.32341182079756087,28.066698840566293,71.04517745683921,0.34657081276529395,1259.0866340582604
178.27694200000002,0.5547120561247227,0.32336052547477234,28.060119901231843,70.40149804951227,0.3444034590590076,1247.6828201589374
178.30596400000002,0.554641191543194,0.32330913609667566,28.053529898882097,70.2575010177567,0.34530932493475003,1245.1345377703035
178.33531399999998,0.5545704895237487,0.323257165698906,28.046866406387448,67.98221680495112,0.33683101945964855,1204.8145537099783
178.3647595,0.5544979782603807,0.3232050259502025,28.040182228584232,68.58899340992653,0.34306450330979943,1215.5718037345582
178.3940795,0.5544267637921098,0.3231531081633626,28.033527528946475,66.99951674479547,0.33970375745529785,1187.4057797835428
178.42335350000002,0.5543548179627648,0.3231012715510075,28.02688425249425,66.76491510002691,0.34416480961954987,1183.2515644825407
178.4526655,0.5542837816963462,0.3230493673544991,28.0202333339833,64.2817922070101,0.3388594845790608,1139.2474430575776
178.48165749999998,0.5542116031368716,0.3229980294899179,28.01365598750671,65.03250893404584,0.35191179471831435,1152.5555879312615
178.51065699999998,0.5541420848405442,0.32294667802223853,28.007077896074094,60.408529856129775,0.33873200134621806,1070.6090833433962
178.539965,0.5540698227909553,0.3228947799277199,28.00043079582869,58.968477024450515,0.3445233390686133,1045.0904232431471
178.569647,0.5539987500956441,0.3228422191910449,27.993699862952802,53.65271295344846,0.33047354851944927,950.8827298225448
178.5991615,0.5539246102500781,0.3227899546768214,27.987007900360233,53.445994269154596,0.34862435520566926,947.2219253789181
178.6283785,0.5538543101976263,0.3227382165824887,27.98038435800318,48.393787421590424,0.3371811065218425,857.6843570810861
178.65783950000002,0.5537815780769222,0.3226860459924887,27.97370647191825,46.120184324162715,0.34294881809465816,817.3916886369796
178.68699900000001,0.5537100365286824,0.3226344088824127,27.967097884715745,43.34134116144885,0.3442956077363429,768.1443174395185
178.7168145,0.5536387336033187,0.3225816096381773,27.96034160777486,38.594412736766785,0.3284893306771057,684.0159597889532
178.7469505,0.5535639293109106,0.32252824234496874,27.953513712532445,37.14695954850674,0.3371280267022503,658.3645031957814
178.77652949999998,0.5534910067717425,0.3224758609399209,27.946812999386278,35.23571009180255,0.3410758026213093,624.4928550799501
178.80633749999998,0.5534188838024254,0.32242307348770743,27.94006139213796,32.11827954056515,0.33233208365217226,569.2434487832877
178.83605799999998,0.5533447887623135,0.32237044046222363,27.93333058362901,31.195563354035286,0.34338083666878705,552.8915063193444
178.8654275,0.5532730465976239,0.32231842849919634,27.926680224815556,28.99499534062364,0.34047252432916164,513.8914960076299
178.89496450000001,0.5532006251225806,0.32226611934839056,27.9199928964633,27.16460671597915,0.3398818366904906,481.452137466143
178.924723,0.5531280123783172,0.3222134173493627,27.913256389309634,25.180712018247743,0.3359506912932903,446.29191897303207
178.9546535,0.5530544539281235,0.322160410137216,27.90648192566167,23.704817878476774,0.3364589944176775,420.13510111267834
178.984534,0.5529809465917804,0.32210749085501517,27.899719756508055,22.36538464017892,0.33748579323819644,396.3967094409263
179.0142085,0.5529075838316316,0.32205493577428024,27.89300517081832,21.334950181034177,0.34165322401406456,378.1347742508488
179.04408899999999,0.5528350396303368,0.32200201520429184,27.886244941035955,19.55305624222204,0.3335955837791445,346.5540347235957
179.0740915,0.5527606135876473,0.3219488778869795,27.87945808504815,18.791736197358002,0.33949909198206696,333.06158731264316
179.1040025,0.5526874193585833,0.32189590193289236,27.872692897668284,17.51875127166417,0.33634087561523685,310.50036384530756
179.1338755,0.5526133927290224,0.32184299257421645,27.865937269688427,16.801755218573433,0.3410862868863809,297.79331533729237
179.163367,0.5525403355034352,0.3217907581964869,27.85926885930393,16.10275189327556,0.3455414741489868,285.4050812131888
179.193087,0.5524681378035742,0.32173811837623795,27.852549727896104,14.761692931335054,0.3371007536636605,261.6369539381204
179.22290249999998,0.5523939049023241,0.3216853086528785,27.84580995737407,14.31489830979124,0.3443337578703579,253.71871706979113
179.2528135,0.5523211870279778,0.3216323290018472,27.83904955448822,13.140212247898223,0.3359843945426777,232.89917288788553
179.28275150000002,0.5522464321772209,0.3215793007311398,27.83228400487778,12.83376357127199,0.3448993772740095,227.46832409927364
179.31239549999998,0.5521735309785498,0.32152679241183874,27.82558583471985,12.09630521027404,0.343586467675335,214.39810604626953
179.342146,0.5521001755359907,0.32147409463016785,27.818864538293248,11.472217328603788,0.34380839755706893,203.33722545990037
179.37179,0.5520266986291498,0.32142158466126663,27.812168234661492,11.02037752476129,0.347112248253202,195.32926449031135
179.4016135,0.5519538187244063,0.3213687558782085,27.8054323201644,10.235406516059738,0.3414613045835375,181.4166992862456
179.4315895,0.5518794045803956,0.32131565607665946,27.79866290628497,9.876173897613546,0.3454778388308801,175.05004339275837
179.4612715,0.5518057206233722,0.32126307618058036,27.791960816095653,9.533205017999098,0.3490566433798598,168.97161064340685
179.4907555,0.5517327082728246,0.3212108461369663,27.785304347774535,9.150561649630959,0.3512075881173339,162.18992383797902
179.5205215,0.5516599527746918,0.3211581156191619,27.778585135486207,8.507192945120465,0.3449520394493021,150.7869377857981
179.55068799999998,0.5515854952249571,0.3211046746550271,27.771776459188985,8.101003478210075,0.3445579171238325,143.5878178173007
179.580439,0.5515107072123445,0.3210519687994045,27.765062489634985,8.087797942714449,0.35542171831500424,143.354189292205
179.6099115,0.5514382544106429,0.32099975536455644,27.758412275171917,7.633164941427539,0.352253906951825,135.2963406548285
179.639811,0.551364793790464,0.3209467844635318,27.75166663035133,7.190144958730743,0.3482128233088623,127.44428815152864
179.669577,0.5512901756657914,0.32089404906426433,27.74495202111873,7.13482353784825,0.3570626314772746,126.4641083610134
179.699183,0.5512173253312925,0.3208415961139943,27.73827440949547,6.739881120124876,0.35362642130447464,119.46415060327779
179.7289795,0.551143448470111,0.3207888046133995,27.731554739530953,6.495197720728477,0.35499697348290166,115.12749650987307
