T(K),Fc,X,m(mol/kg),cp(J/gK),cp_err(%),cpm(J/molK),cp_SMA_1K
181.500094,0.9087112252774958,0.3176483633730901,27.333688169747195,4.018947400443801,0.5296655600580612,71.24881142349804,
181.528048,0.9086969307696192,0.3175987478921345,27.32743170496726,4.10264956673033,0.530898050402889,72.73291041206909,
181.556582,0.9086827006727148,0.3175481010932818,27.321046130258367,3.251698574607012,0.5280660086563613,57.64718327854355,
181.5851195,0.9086678039224708,0.3174974461707131,27.31466047925007,4.102839412827349,0.5295344713858486,72.73670074169178,
181.6132375,0.9086535600942772,0.3174475339897605,27.308369386655624,3.809183140008857,0.5284560885256193,67.53084469132473,
181.6417335,0.9086390813731896,0.3173969489004797,27.301994417223536,3.619203288312496,0.5282876425976817,64.16298685711756,
181.670069,0.9086244411080476,0.3173466467928759,27.29565604733154,4.051487894710186,0.5307456465392882,71.82694573878143,
181.6983165,0.9086101161629228,0.317296498973932,27.28933804848293,3.761137190927626,0.5290187435197158,66.6796457920863,
181.7264045,0.908595555501668,0.3172466323892087,27.283056401947103,4.297049094654621,0.5325002801707822,76.18082525056278,
181.754515,0.9085813836049196,0.3171967239217673,27.276770398165315,3.7512061285550375,0.5286935242086853,66.50396453042029,
181.7830295,0.9085667896225016,0.3171460961834018,27.27039474056782,3.751779665062085,0.526538608497725,66.51432666533367,
181.8115065,0.9085521939827405,0.3170955330084168,27.26402815709536,3.797515750639795,0.526934863476327,67.32536604096606,
181.8401855,0.9085376279271468,0.3170446091135818,27.257617106967164,3.501005371676919,0.5269037296999156,62.06877744186665,
181.86848300000003,0.9085228147951948,0.3169943605963025,27.25129202037845,4.344562620893546,0.530403799167757,77.02429523205451,
181.896342,0.9085086292846593,0.3169448887468806,27.24506560683565,4.1059796112769815,0.5285336990819314,72.79468962569412,
181.9241625,0.9084942552447498,0.3168954832851651,27.23884844874245,4.415754920494836,0.5320082526295735,78.28690218429685,
181.9525285,0.9084800992314788,0.3168451070375742,27.232510053372284,3.4013263907555973,0.5263017373578964,60.30227772167317,
181.981608,0.9084651552521888,0.316793461493804,27.226012924095915,3.484384091380376,0.5236090342540979,61.7749955312642,3.946860685425347
182.010115,0.9084502565719308,0.316742830575241,27.219644390471267,4.211173274978554,0.5297296110215212,74.66053183041245,3.9421127662527398
182.0382405,0.9084358895207992,0.3166928751419121,27.21336174671051,4.027835866794991,0.5278377360316421,71.41032061993825,3.9424639082433326
182.0665265,0.9084213719921916,0.316642632524994,27.207043911808785,4.004693446286514,0.5265178648289042,71.00022953631216,3.9547127943361855
182.0947095,0.9084068297193388,0.3165925707425081,27.200749740147543,4.173967261339606,0.5279137828347709,74.00154160489397,3.9546108667272244
182.1229805,0.9083924076357256,0.3165423505068384,27.1944365729232,3.902357307895952,0.5237267764086992,69.18628595569139,3.9505271639943462
182.1512015,0.9083777644197446,0.3164922169412638,27.188135226274948,4.268784551420396,0.5261735131930863,75.6830240550766,3.951821599644245
182.179373,0.9083633833837887,0.3164421691551561,27.181845583285536,3.9796205895710415,0.5266353922311688,70.55652163660496,3.9362482873396867
182.207537,0.9083487805689268,0.3163921325266748,27.175558263143035,4.285712548135219,0.5281413211487143,75.98358570350614,3.931465003273107
182.2359795,0.90833439690747,0.3163415988981728,27.1692094268742,3.6311453352966847,0.5259627542926124,64.37861691324245,3.916856950434544
182.26459,0.908319496737389,0.3162907645278826,27.16282375354197,4.078217849521266,0.5264257397522243,72.30522867471568,3.9291713401279456
182.292952,0.9083049295128816,0.3162403694372721,27.156494198529742,3.9885545558534594,0.5250080212848148,70.71573846478297,3.930872811497309
182.3218215,0.9082902745546396,0.3161890702804363,27.150052052224712,3.432572941896648,0.5245479374121829,60.85855030167546,3.920347442649344
182.3503365,0.9082751734632148,0.3161383987406303,27.14368967088116,4.467526970293598,0.5259576303748046,79.20822468786179,3.933696134675459
182.3782335,0.9082608733016184,0.3160888231640836,27.13746581246444,4.234343706619468,0.5255184684638151,75.074153601686,3.9101862990638803
182.4065805,0.9082463988257496,0.3160384456213841,27.13114219720224,3.845872111041573,0.525831020218047,68.18681993509921,3.902369877401574
182.4353815,0.9082316239165033,0.3159872588799181,27.12471796171065,3.6172299705691127,0.5245045512076387,64.13321326043923,3.895482420854867
182.463736,0.9082166700870224,0.3159368633434127,27.118393966312755,4.422805588415601,0.5295851770725786,78.41623566608718,3.896894855996895
182.491873,0.9082023454382864,0.31588685206938,27.112119112032588,3.852770229402558,0.5256494231707585,68.30971947762853,3.9120911474988094
182.5201895,0.9081876054303986,0.3158365194128594,27.105804860504627,4.114939536401076,0.5275236423866823,72.95819995162925,3.907619124055306
182.54859,0.9081730848288332,0.315786035078793,27.099472514159796,3.680409587856857,0.5271361664064814,65.25413981791048,3.8976134137614564
182.5769525,0.9081582471758654,0.3157356159130059,27.09314927457632,4.099271946513718,0.5289841103347965,72.68083500506378,3.8979634246612656
182.605269,0.9081437552229455,0.3156852761335457,27.086836920674884,3.6662535443581104,0.5265068445279978,65.00352878973874,3.9027917069985896
182.6338525,0.9081289542837796,0.3156344592612115,27.0804656836157,3.664508536058974,0.5281944737771284,64.97277966481721,3.8946779649100587
182.6625125,0.908114175293118,0.3155835039161948,27.074078035328355,3.506421964050612,0.5278085271732702,62.17004230032328,3.8886736173916314
182.691199,0.9080992841604542,0.3155324989671083,27.067685121234742,3.593722248597341,0.5289586977013385,63.71809303945955,3.893308815789963
182.71966,0.9080844667242058,0.3154818924847158,27.061343092160485,3.7857672453049314,0.5315668336561539,67.12332127685721,3.88291371199421
182.7476825,0.9080697982042644,0.3154320632765393,27.055099387643548,4.182209767824105,0.5327894620446104,74.15263481383154,3.892120434472874
182.775694,0.9080554244304826,0.3153822512128784,27.04885873978484,3.811331162989787,0.5300752223149078,67.57696884571034,3.888856240926262
182.804297,0.9080407566233172,0.3153313847954003,27.042486935497475,3.4291278409610237,0.527708568215546,60.800474863020526,3.895724240907264
182.832831,0.9080257586615644,0.315280638547657,27.036131127669865,3.9682095925909424,0.5284353684939096,70.35892050642026,3.908810109996468
182.8613455,0.9080111515340934,0.3152299244341318,27.02978028567691,3.521718374488305,0.5261944153226009,62.44252516172215,3.8958816417718944
182.8900055,0.9079961626528906,0.3151789489649855,27.023397662466195,3.832404853096239,0.5273948806178872,67.95141292369597,3.888453019759314
182.9182075,0.9079813935165664,0.3151287855701423,27.01711764637854,4.174693941360087,0.5273427858976526,74.02066920886281,3.891648563914209
182.946722,0.907966869307226,0.3150780637533452,27.010768656079808,3.4507616207265923,0.5260107949460622,61.18494784419959,3.894806462885947
182.9753705,0.9079517644377232,0.3150271009570243,27.004390448695677,4.016254293947373,0.5287100643777658,71.21182457980166,3.8833713060735007
183.003584,0.907937090041012,0.314976909402132,26.99810969299476,4.054652454455965,0.5249953645450449,71.8928666736044,3.9064089174006607
183.0320835,0.9079224263372782,0.3149262064428597,26.991765876770916,3.677636006510246,0.5232787143246667,65.20819493187489,3.889432961386605
183.060656,0.9079074434564774,0.3148753709602129,26.985406422221708,4.016943827779842,0.526811392164412,71.22467341666724,3.914721754132313
183.0887895,0.9078926927830816,0.3148253139288359,26.9791452730362,4.342957143145913,0.527112853955259,77.00545731977199,3.9160578514095263
183.1172775,0.907878155830388,0.3147746234975976,26.97280583021137,3.618376334797374,0.5215298422941824,64.15802163591518,3.937989467488837
183.146006,0.9078630249203116,0.3147235024160607,26.96641347928447,4.05863238827546,0.5238683970036075,71.9644856141963,3.938217472892924
183.174349,0.9078482264147884,0.3146730646297624,26.960107504501767,4.141852533512651,0.5256953687631372,73.44029340545897,3.9677720804087504
183.2027875,0.9078334859660238,0.3146224542023729,26.953780878198742,3.92188391528386,0.5244927421320169,69.54017390552603,3.977284059246666
183.2313445,0.9078185767909012,0.3145716301575906,26.947428488568875,3.953380622049927,0.5232036535950185,70.09885736059657,3.989207360291465
183.2598405,0.9078037016337224,0.314520911936552,26.94109026466544,3.963971075389837,0.524811800369451,70.28684604308995,3.980067843460685
183.288119,0.90778884487561,0.314470578109926,26.934801005507296,4.228934555188556,0.5262344918309017,74.98524295777176,3.9775779701725105
183.316466,0.9077741856090716,0.3144201196246866,26.9284970970595,3.8905783600187633,0.5243158886862391,68.98588948510904,4.001312055383791
183.345,0.9077592461756068,0.3143693254964183,26.9221521930057,4.015030582433526,0.5248098037187475,71.19282562896701,3.982620053884229
183.373507,0.9077443804927754,0.3143185766348269,26.915813882182626,3.974341936179164,0.5245497558502887,70.47155783790569,4.001914497156789
183.402079,0.9077294579761492,0.3142677092396062,26.90946170847355,3.957716156462869,0.5215138835179475,70.17696138297191,4.006791530683403
183.430842,0.907714513069529,0.3142164989378038,26.90306766546286,3.727756434579976,0.5206253723698173,66.09958395426708,3.994292345439657
183.459559,0.9076993794109732,0.3141653676536706,26.896684441141584,4.022575099979955,0.5224988737296093,71.32744014720106,4.015156717504527
183.4876085,0.9076844712115796,0.3141154220752122,26.89045015906026,4.659086625853155,0.5274301600280789,82.61416397426616,4.003458712269406
183.5160775,0.9076700248081908,0.3140647266887794,26.88412321325266,3.5207810759091345,0.5217047397171336,62.43009804224586,4.004049275179867
183.5446495,0.9076546661144552,0.3140138450007008,26.877773956708264,4.56551733395664,0.5238391028745465,80.95548241677588,3.999388704896841
183.572775,0.9076401008277224,0.3139637556116573,26.871524486901656,4.146035351216184,0.522854082934264,73.51746499338009,3.9957161359967635
183.6010155,0.9076251984063688,0.3139134585691491,26.8652500271293,4.433860107133999,0.5241933210699737,78.62139908675572,3.99237747737429
183.6296185,0.9076105015964006,0.3138625129830018,26.85889560054163,3.672488725202008,0.5211310978629109,65.12092000555695,4.000633323971246
183.6581255,0.9075952076901306,0.313811735445291,26.85256307347819,4.540833227104528,0.5248159106262607,80.51872305164036,3.9805548404214783
183.6864035,0.9075806003624456,0.3137613628960309,26.84628197896188,3.926641507924388,0.5199253836058081,69.62798720420027,3.973399418015786
183.7148725,0.9075655351613215,0.3137106471672085,26.83995902391166,4.203082781872892,0.5259585523774627,74.530116595329,3.981183865857938
183.7433035,0.9075507161874552,0.3136599961703187,26.83364507193493,3.862326678746799,0.5249515932103541,68.48794392412242,3.982297329850602
183.77199,0.9075356793955798,0.3136088869748846,26.827274947284785,3.724185597903685,0.5253145940979675,66.03857901972381,3.9606027801482844
183.8003065,0.9075205805954938,0.3135584340048218,26.820987543341744,4.259820823355852,0.5269797191242263,75.53687229349197,3.9447725815213466
183.828909,0.9075059211945772,0.3135074684303953,26.814637197404974,3.313989540106254,0.5225105809026405,58.76518056023616,3.950955978866298
183.857546,0.9074905100962232,0.3134564383237577,26.80827975533752,4.197023889027887,0.5294461904349154,74.42376896934428,3.9514507647527743
183.8856455,0.9074758031038956,0.313406363034854,26.802042185205607,4.003101026527752,0.527999749471133,70.98523465624288,3.924788145594739
183.9140765,0.907460945845191,0.3133556939636381,26.79573157729788,3.7372224578289774,0.525957060943227,66.2707201073039,3.922325262916485
183.9423735,0.9074458786570164,0.3133052606682855,26.789451259017515,4.181014642997054,0.5281400146515973,74.14053070587481,3.9260117289856544
183.9707665,0.9074311511376733,0.3132546532158506,26.78315018065231,3.606824110718143,0.524381581465558,63.95878904325381,3.9236683651417534
183.9992165,0.9074159712664764,0.3132039410811022,26.776836999896524,4.075322156322121,0.5281437245276377,72.2667431913771,3.905184998696199
184.0277045,0.907401172348654,0.3131531581022403,26.770515933918908,3.5145160466043084,0.5264684410311791,62.32228080372067,3.8933646000859627
184.0563035,0.9073859407107346,0.3131021741103872,26.764170787625385,3.888403916277118,0.5283730606961325,68.95256970346573,3.8775567237432678
184.0843645,0.907371013267061,0.313052146146903,26.75794553812096,4.22610409135936,0.5294689083842922,74.94117978201903,3.877242977423851
184.112418,0.9073563375995546,0.3130021284970687,26.751722478378767,3.907330965690826,0.5282846950455002,69.28860008500332,3.8532904406615436
184.141135,0.9073414067021114,0.3129509246876183,26.745352778460703,3.3558854640335776,0.5250365478772285,59.51000668738161,3.880464076558532
184.1698595,0.90732601907775,0.3128997042725083,26.73898196263836,3.891412749313448,0.5278819872820228,69.00673002495687,3.866700963996853
184.197928,0.9073110685947454,0.3128496504742654,26.732757168654373,4.194339589759167,0.5296359597921424,74.37877016207091,3.8611100730615364
184.225901,0.9072963623293724,0.3127997638804679,26.726554070816917,3.992351861793139,0.529601182704017,70.79709898439314,3.851544975704722
184.2546065,0.9072815013948424,0.3127485677289223,26.720189073669555,3.204661835808729,0.5261837146475675,56.82901666618044,3.8519023443264198
184.2835145,0.9072660090693776,0.3126970070996014,26.71377972095729,3.674877603245753,0.5290570026570954,65.1676562815124,3.8744195568022683
184.3116975,0.90725092220157,0.3126467363673788,26.707531637413304,4.106997267092052,0.5304892611022827,72.83076891497151,3.875685701719493
184.339594,0.9072361851573154,0.3125969735275121,26.701347579205084,4.032348088460187,0.5316013711541692,71.50719486686313,3.8881821118046656
184.3683035,0.9072213900795372,0.3125457571465251,26.694983823463488,3.04115026564793,0.5265189542851575,53.93005803356593,3.8893041881931514
184.397135,0.9072057804518964,0.3124943197601258,26.68859356157365,3.871515262723989,0.5300642563219756,68.65548998811718,3.8912339946796686
184.4253485,0.9071908444365449,0.3124439816518814,26.682340792887704,3.856782747000908,0.5298595555121124,68.39442939465785,3.88755081219981
184.453547,0.9071758777322612,0.3123936670544828,26.67609185947197,3.940557365443444,0.5280367551899897,69.88025292863725,3.8838029797779883
184.481684,0.9071609460658386,0.3123434589377845,26.66985706220952,4.0121688002587375,0.5278483525699142,71.15038702835191,3.8872274419867168
184.5105345,0.9071460330303192,0.3122919742513288,26.663464687094667,3.1070671245508708,0.5245596317028122,55.0997964552778,3.8812988071211545
184.5394615,0.9071303324200808,0.3122403495888312,26.657055893409723,4.012241661962323,0.5258861463395246,71.15210185039362,3.894071934855752
184.567675,0.907115326310403,0.3121899949258818,26.65080568696254,4.135054230036569,0.5250769850162689,73.33024233312257,3.9035947038182544
184.5962625,0.9071003711963128,0.3121389693696453,26.644473140224985,3.595521320453223,0.5223524057321612,63.76245878400408,3.8784720140509177
184.624533,0.907084955940977,0.3120885062557171,26.63821131956407,4.623565981596639,0.5296889268792729,81.99389358453975,3.896968526276728
184.6524795,0.9070703260675202,0.3120386181798164,26.63202175668285,4.059124287445767,0.5255088843518145,71.98434344569212,3.9207103534076833
184.6811015,0.9070552433918038,0.3119875208302524,26.625683090963367,3.730960325188308,0.5204057743444299,66.1648920116326,3.9195756574856473
184.7098755,0.9070398834781014,0.311936148620843,26.61931127772793,3.868304374384387,0.5229145414829147,68.60075596714023,3.906655476012391
184.7385465,0.9070246270690696,0.3118849567976721,26.6129627846008,3.874834580506199,0.5233919987046474,68.7167657421999,3.9120806286878342
184.7667525,0.9070093646056404,0.3118345917985502,26.60671775082997,4.512288034558392,0.5266753524101472,80.02167142549986,3.9342901709498026
184.794642,0.9069945914398432,0.3117847885883954,26.600543275181003,4.304135895458724,0.5263915071730747,76.33048557593109,3.9243440020486156
184.823092,0.9069796543361848,0.3117339810213338,26.59424520269798,3.751363893087294,0.523033496394389,66.5277009667803,3.921936771751822
184.851588,0.9069642721802036,0.3116830877951028,26.58793744408797,4.236296562624878,0.5230099722658847,75.12784826484237,3.915395242711408
184.8798395,0.9069492742140044,0.3116326277593035,26.581684296375283,4.070644253555867,0.5221467432507476,72.19032672185851,3.9509959993339017
184.90856,0.9069341407475368,0.3115813264752471,26.575327838587068,3.608311071033945,0.5242692816297035,63.991326398086834,3.936707821855798
184.937277,0.9069186303897752,0.3115300278334178,26.56897265541125,4.049840508233253,0.5263148086747,71.8218098977902,3.9363115392977273
184.9658605,0.9069034885587884,0.3114789640712613,26.562647511035777,3.726680288023661,0.5211953754213353,66.0909263292564,3.9457208992790544
184.994532,0.9068881083993336,0.3114277394787455,26.55630338756201,3.867819936027424,0.5218366103815182,68.59417420978538,3.9387484629892633
185.0229935,0.906872860453868,0.3113768864728523,26.550006218379707,3.961575517315224,0.5258698359025669,70.2570962103872,3.9666069433425872
185.0511765,0.906857692494518,0.3113265275233324,26.54377114508276,4.221700829964714,0.5268008735788543,74.87054094493166,3.9523240746001274
185.0798175,0.906842730283848,0.3112753465633045,26.537435230767084,3.3468099495025885,0.5250577915268828,59.35480043796071,3.946365518252418
185.1082215,0.9068270603369196,0.3112245854897622,26.531152226083385,4.554708893594157,0.5290291469157524,80.77680901179514,3.9506954687403777
185.1360075,0.906812339809219,0.3111749253409252,26.52500638561002,4.186849413617013,0.5253535841694621,74.25311057277867,3.937367279149546
185.1643165,0.9067973191441802,0.3111243268848829,26.518745333480695,3.851698392042188,0.5247937121907735,68.3094594781545,3.9337472232774213
185.1929575,0.9067820269099524,0.3110731313308104,26.512411332484337,3.7421332381952,0.5249533711853371,66.3665289373549,3.937244117172468
185.2213615,0.9067666385296934,0.3110223557295118,26.50613021852414,4.182232205433676,0.5259360339080638,74.17187710937348,3.938474540568874
185.249586,0.9067515880761322,0.3109718973599796,26.499889264282057,3.98199581497761,0.5233891613763758,70.62089055905851,3.933106504909392
185.278429,0.9067363799237756,0.3109203294976301,26.493512026547045,3.3267616917041765,0.5223884545752905,59.00045662571109,3.9281122623020055
185.3071845,0.9067206539149116,0.3108689142682909,26.48715461465097,4.022744206704305,0.5285266313877516,71.34398858537286,3.9180747793692645
185.3355125,0.9067055273316796,0.3108182596845911,26.480892183008415,3.8033945720457103,0.527827846279134,67.45398586274699,3.9248797140456726
185.363619,0.906690247629384,0.3107679975027429,26.474679173885814,4.2871767474352005,0.529055166374063,76.03418253550369,3.9106308490318953
185.3920575,0.9066753469001128,0.3107171378767172,26.46839323580899,3.3714290509903355,0.5230405489058682,59.793336761321136,3.9112631909962423
185.4208245,0.9066596982914704,0.3106656869211213,26.462035156823656,3.842912857468455,0.5254808167777674,68.15544989731744,3.925365717115088
185.4489235,0.9066444324261806,0.3106154269710037,26.45582517331683,4.269884964789879,0.5285207110309222,75.72817398221974,3.9192751748442105
185.477091,0.9066294895366436,0.310565040773968,26.44960049991469,3.768133530116065,0.5291376313722814,66.82959898721043,3.928560772701444
185.5054,0.9066141378303368,0.3105143976920789,26.443345007890407,4.082113936917201,0.5284234709083568,72.39839862766715,3.918106286192927
185.533907,0.906599030713318,0.3104633965686504,26.437046218799125,3.5123412559762293,0.5245710437980329,62.2933689456111,3.920552513556296
