T(K),Fc,X,m(mol/kg),cp(J/gK),cp_err(%),cpm(J/molK)
175.1109525,0.1793168876418331,0.3289689054909661,28.785385884595918,2.1726637666424886,0.3622151556530828,38.49234431882665
175.139559,0.1791905765727544,0.32891817672391427,28.778771399577256,2.1858691338710377,0.36077139852246237,38.7264126183136
175.167845,0.179063721578627,0.32886801787276554,28.77223220860477,2.288498255003362,0.36957525241639994,40.54478043020284
175.1964135,0.1789401784584155,0.3288173596326297,28.76562890449273,2.185753836014957,0.3537745515854038,38.724595084692886
175.224894,0.1788107516510391,0.3287668589805386,28.75904713405224,2.3674983560729204,0.3712489728963265,41.94465118538548
175.25313,0.1786879196033002,0.32871679337328275,28.752523040715044,2.2955410439370274,0.35899429006646,40.6699105599424
175.28148099999999,0.1785605878811539,0.32866652534983914,28.745973549341837,2.410973137873443,0.36802768316372564,42.71513524509121
175.3096985,0.1784366688314933,0.3286164954976187,28.739456063423464,2.39637713803666,0.36139333030346327,42.456660879113564
175.3379045,0.1783104504347506,0.3285664874818858,28.73294239281269,2.499005464955584,0.3676910698952089,44.27505665996923
175.36636950000002,0.1781865650749135,0.3285160217202713,28.726370083200575,2.43147236696952,0.3548856201688493,43.0786933651973
175.3947775,0.1780579791943641,0.3284656584496967,28.719812106118376,2.6079246277002923,0.36860231337767235,46.20505386069854
175.4228615,0.1779345306037772,0.32841587097734837,28.713330072515816,2.6007836448704444,0.36187644194230734,46.0786681361176
175.4512125,0.1778087492005272,0.3283656115543783,28.706787568460438,2.653855971110791,0.36140306568197955,47.01909875248916
175.4796015,0.1776828617369062,0.328315286147921,28.700237456052708,2.7065233443920294,0.36048798944940486,47.95236031825943
175.5079255,0.1775566726966779,0.32826507732835697,28.693703496075177,2.7922775170901475,0.36237009218535754,49.471838328602665
175.5360935,0.1774312923417588,0.32821514637548915,28.68720666507128,2.8751138205836133,0.3635655496015531,50.939627178067184
175.56412749999998,0.1773064191703981,0.3281654542552065,28.680741868855776,2.967793656779816,0.3650086975840155,52.58182635729523
175.592421,0.1771821602499193,0.3281153034552078,28.67421836932557,2.96358131993559,0.35664036715976233,52.507346227254885
175.6208595,0.17705491046878,0.3280648969405353,28.66766258826599,3.099025546591233,0.360825397022197,54.9072432343187
175.64924050000002,0.1769292922923654,0.3280145936267113,28.661121209821278,3.1618526823744277,0.3573239511409594,56.02055076431728
175.67767550000002,0.1768024823501829,0.32796419587104314,28.654568532312,3.290067331822952,0.3587994321821541,58.29238051163731
175.7060075,0.1766763128582409,0.3279139819181451,28.64804073006032,3.416041069844189,0.3592103956741539,60.524518941749186
175.73444999999998,0.1765503481447578,0.3278635733572553,28.641488609850008,3.506409181762094,0.3554033742061069,62.12581803273065
175.76271300000002,0.1764231235994089,0.32781348413367517,28.634978970594915,3.7457164363975766,0.3628110871593305,66.36600518685398
175.790705,0.1762986862766133,0.3277638763638592,28.628532857633942,3.8894000239989026,0.3613930334129745,68.91196517938845
175.81877,0.1761738044220027,0.3277141403783975,28.622071039131626,4.051710568601491,0.36031944474350325,71.78797160475378
175.84687300000002,0.1760486469611171,0.3276643381942357,28.615601577870173,4.231881906910882,0.35976259141159456,74.98045222283795
175.87512850000002,0.1759233562653451,0.3276142668979938,28.60909812423866,4.381704443753732,0.35597022500380704,77.63523099931083
175.903613,0.175796768551105,0.3275637909315033,28.602543090770034,4.564703001075286,0.3534957604573669,80.87784287335802
175.9320475,0.1756693643322358,0.327513404691071,28.59600069092861,4.848127930666895,0.35661173686682773,85.89984239570082
175.96029149999998,0.1755431503191633,0.3274633571137277,28.589503235233423,5.123776177243865,0.35763260601587604,90.78408051737985
175.9882915,0.1754173733856834,0.32741374295891496,28.583063003304016,5.484944252361525,0.3621859956147213,97.18360602586408
176.0165925,0.1752932658015834,0.3273635965097529,28.576554641609132,5.575141270386845,0.34975929164824704,98.78202488583418
176.04528249999998,0.1751647301009038,0.3273127618617353,28.569957951004948,5.946312424952299,0.35202802884340917,105.35885557652404
176.073141,0.175037077049849,0.3272634015289061,28.563553532747314,6.670745794963472,0.37044851240671306,118.19495734480302
176.10078249999998,0.1749158960068192,0.3272144266538386,28.55720005573921,6.791995223958687,0.3569440790942531,120.3436433896958
176.129313,0.1747901103716553,0.3271638776589322,28.550643339235258,6.997739011411869,0.3475680867807621,123.98946631342744
176.157908,0.174660914108887,0.32711321538842714,28.54407291816791,7.592036631176159,0.35500209307587616,134.519924051326
176.18584299999998,0.174534478907534,0.32706372340488077,28.53765522763509,8.245335214195075,0.36372699050094415,146.0958483681627
176.213927,0.1744111112460557,0.32701396837435776,28.531204378919078,8.371385870015896,0.35109031582310557,148.32971590958763
176.24206800000002,0.1742832710639741,0.3269641132832573,28.52474151378338,9.103145184671808,0.36202198394092805,161.29597203735227
176.270125,0.1741593227203056,0.326914407912646,28.51829901045768,9.298202894049417,0.35294366150800066,164.75261489237153
176.29828500000002,0.174032161221216,0.3268645209612338,28.511833928418344,9.929882824848521,0.3591898043274029,175.94570543231825
176.326487,0.1739072195277523,0.32681456048488655,28.50536027826039,10.168429470551677,0.351766321595716,180.17298717811576
176.35447549999998,0.1737796086314988,0.3267649790839681,28.49893669686964,11.057070008319183,0.36460585842181453,195.91924541733616
176.382464,0.1736565078593717,0.32671539851967446,28.49251416992379,11.13266911776489,0.3516316173728942,197.2593433472705
176.4107765,0.1735288237976862,0.3266652448371173,28.486018365149107,11.802198204205709,0.3561405776970743,209.12330875323318
176.439089,0.1734027475661304,0.32661509197887245,28.47952363472845,12.167839477503753,0.3515217985700907,215.60273494912994
176.46728000000002,0.1732749892661836,0.32656515514930934,28.473057840868925,12.998753080288914,0.35913067895054107,230.3264101034298
176.49527999999998,0.1731499295744726,0.32651555743009597,28.4666369039285,13.448872586008683,0.35618926027076975,238.30281128985348
176.523314,0.1730238110210478,0.3264659002461085,28.460209216010533,14.103154133148205,0.3581893758973629,249.8968504882636
176.551207,0.1728983739757294,0.32641649355868246,28.453814893231208,14.752060617362268,0.3597199961078864,261.39571012702424
176.57916849999998,0.1727734484154985,0.326366966263654,28.44740590255211,15.197626750593997,0.3563875885066331,269.29158479337804
176.6074505,0.1726473238786867,0.32631687200121845,28.440924503058863,15.572248473576202,0.3515828195118438,275.9304234062734
176.63564150000002,0.172519446801706,0.3262669396305468,28.434465008940126,16.503219006001576,0.35864932564809265,292.42747619865514
176.663737,0.1723940661330787,0.3262171770995134,28.42802843861727,16.87874782717375,0.35390402187479403,299.08248750841955
176.691981,0.172266972737861,0.3261671522235103,28.421558893307925,17.53309026954672,0.35483665002644926,310.6779858400981
176.7203315,0.1721401836881745,0.3261169393849917,28.415066005390084,17.950312051272032,0.3512297503677644,318.0718775340052
176.7482015,0.1720120577896059,0.3260675782174068,28.40868418782149,19.430312655446595,0.36729640253873924,344.29783734386166
176.775984,0.1718895168871402,0.3260183726354046,28.40232341600621,19.273973462666245,0.3533610956356334,341.5285346700219
176.803858,0.1717621040265521,0.3259690055972153,28.395942706133955,20.54405980605607,0.3648182138679491,364.0350874777983
176.83145000000002,0.171638668413952,0.3259201385797167,28.38962754458679,20.90612713644355,0.3605031031579929,370.45186484810756
176.85957200000001,0.1715137206741351,0.32587033347689753,28.383192094890273,20.946716036548747,0.351243724424462,371.17215701371754
176.88761,0.1713854400001535,0.32582067770394374,28.376776887070154,22.26008680491244,0.36267329382913877,394.44598753800426
176.91587700000002,0.1712611755202881,0.3257706169213996,28.37031031113421,21.763552875577926,0.34567229200469896,385.64858091773704
176.94399900000002,0.17113075556098,0.3257208134692899,28.363877928535533,23.725136232886772,0.3665037545581367,420.40890331093163
176.9715865,0.1710077245657525,0.32567195710949703,28.357568791196858,23.813053368189305,0.3588906643348511,421.967981837522
176.9994415,0.1708820476074558,0.3256226275098847,28.351199468819694,24.436425816236568,0.35945158606228544,433.01539103477126
177.0269305,0.1707565322307259,0.32557394654531135,28.34491481012675,25.659033465935554,0.36854459098454334,454.68137126497555
177.05456800000002,0.1706340839975959,0.3255250030546042,28.338597174156096,25.288221264072003,0.35564717601937934,448.11179605877425
177.08277750000002,0.1705071555410405,0.3254750470607984,28.33214978953489,25.66677936942378,0.3536448077200542,454.82122343950635
177.1109945,0.170379471616072,0.32542507823149786,28.325701703645137,26.304452273931318,0.3554482192701193,466.1222767717746
177.13900999999998,0.1702523997430791,0.3253754666600856,28.31930066407471,27.03641766651417,0.3587401450039537,479.09427951805964
177.16701,0.1701264598912977,0.3253258829462254,28.31290415936941,27.266633009386197,0.3558302216905942,483.17515312929714
177.194983,0.16999945265899,0.3252763474386621,28.306514812231267,27.987197282884736,0.3594275959797839,495.94524390314217
177.222613,0.1698736820653945,0.32522741969810676,28.300204778938085,28.83314221043201,0.3647151144982543,510.9371954935446
177.2502885,0.1697497007366173,0.3251784117406477,28.29388531762737,28.709570747403944,0.3582521595075798,508.74888720027815
177.278231,0.1696234447352018,0.3251289313238914,28.287505864928416,29.048660528215652,0.35774952239027313,514.7592074228467
177.3061545,0.169496974776378,0.32507948488470934,28.281131727348455,29.49351041202111,0.35873378608568285,522.6436969671994
177.33391799999998,0.1693708155410339,0.3250303220854666,28.27479507965999,30.10427291544596,0.361882849739176,533.4683078929302
177.3618225,0.1692457186480344,0.3249809099089861,28.26842721951564,29.85027739466677,0.35514110395783816,528.9688406489549
177.39000149999998,0.1691182078043613,0.32493101195046054,28.261997701521164,30.12134618639468,0.35483570716888024,533.7739144990416
177.417563,0.1689905498452467,0.32488220769879467,28.255710030686735,31.850444388234358,0.3714094893019228,564.4164811522589
177.44488,0.1688685570479291,0.3248338366412693,28.249479067137276,31.217544402334113,0.36109192180701366,553.2025076468597
177.47288,0.1687430396620363,0.32478425641635894,28.243093270047428,30.79965316451213,0.3534902378950908,545.7986655119568
177.500594,0.1686147832730784,0.32473518284458563,28.236773651901828,32.407350256743875,0.3686968899246664,574.2901869153309
177.5283305,0.1684917840469213,0.32468606964285684,28.23044984985054,31.231112663065925,0.3529280161954051,553.4476647652316
177.556357,0.1683632471014019,0.32463644313597523,28.224060888989428,32.19560671696715,0.36098247475578044,570.5411309848312
177.58445999999998,0.1682375429092956,0.32458668135721497,28.217655455815475,31.513900842803615,0.3510317214970555,558.4621646074713
177.612563,0.1681082339179208,0.3245369197502841,28.211250988539213,32.64898299771477,0.36097983912207504,578.5787714379112
177.6401545,0.1679824534850685,0.324488064002188,28.204964025959423,33.15506893893686,0.36409077785694455,587.54887076291
177.667872,0.1678577116489794,0.3244389852860798,28.198649286486045,32.771156357457514,0.35772666978915035,580.7471079270512
177.695956,0.1677307114203403,0.32438925774328964,28.19225200110043,32.67894342969124,0.35463224791506986,579.1146365237123
177.72376500000001,0.1676025639993784,0.32434001724564876,28.185918300348572,33.84094885431533,0.3648975064749001,599.7086313103827
177.751307,0.1674779863753756,0.3242912496102742,28.179646332716015,33.71284873344456,0.3614705412836673,597.4401991272446
177.7790015,0.1673521895416033,0.3242422120286164,28.17334056029465,33.85988864673815,0.3608822528477449,600.0476546147472
177.80670750000002,0.1672261502106716,0.32419315415032324,28.16703309359789,34.106639657149785,0.3611685505752849,604.4221596825571
177.83449000000002,0.1671001729549096,0.3241439608684609,28.160709137266856,34.131641645255,0.35890092870755075,604.8669490514221
177.8621655,0.1669733613033971,0.32409495708419594,28.154410456688122,34.903120123190995,0.36397694045644463,618.5405217717505
177.889727,0.1668482819067095,0.3240461551774903,28.148138631975186,35.0079500906978,0.3618564405711373,620.4000263923328
177.9173685,0.1667224318632367,0.3239972116270598,28.14184951327637,35.35012615466808,0.3618688038566121,626.4657322779706
177.9452235,0.1665965483530058,0.32394789003626495,28.135512738568956,35.16228943350001,0.3563526650422133,623.1387108757981
177.97332649999998,0.1664686766699249,0.3238981293026543,28.129120480274906,35.45456462637071,0.3554898254140486,628.3201531851853
178.001273,0.1663404557445222,0.32384864564160903,28.12276474771274,36.34357510679207,0.3603654162372848,644.0768930886281
178.029311,0.1662139322800641,0.3237989999156046,28.116389134145894,35.99899491857674,0.35319083827384473,637.9721065530335
178.05708950000002,0.1660847981291556,0.3237498136117552,28.110073443739893,37.865951022815175,0.36722514503531356,671.0600977768376
178.084811,0.1659605643465601,0.3237007281579713,28.103771618668063,36.93656936251943,0.35461491136892664,654.5914555915027
178.1129215,0.1658318715049762,0.32365095382221115,28.09738228568187,37.58298859626361,0.3570305922224115,666.0492362356323
178.140509,0.1657040105411154,0.3236021054391983,28.09111272782828,39.18172530070439,0.36826166574556146,694.3841532106234
178.16772650000001,0.1655800141014497,0.3235539120876309,28.08492812884794,39.400253325424394,0.3667081989474742,698.2588784195418
178.1956045,0.1654554552249702,0.32350454907073145,28.07859434153938,38.06552148398903,0.35118822162026797,674.6064236312276
178.2234445,0.1653253487402945,0.32345525318965956,28.072270090838984,40.255091812352184,0.36773070513683065,713.4125488397616
178.251162,0.1652010603979207,0.32340617405435274,28.065974562300756,39.092501501734134,0.3542310499726322,692.8107426772974
178.2792875,0.1650719937767177,0.32335637229597025,28.05958727426245,39.73447763634835,0.35702255785593806,704.1900862852549
178.307028,0.1649438974093017,0.3233072520632054,28.053288315737703,40.864886912453436,0.36415487672278,724.2256964280012
178.33462,0.1648182726288314,0.32325839457582883,28.047023957580585,40.79740281693192,0.3608450621906162,723.0317499920071
178.3627575,0.16469145637121,0.3232085709407367,28.04063665435851,39.869803027957396,0.35024751428497697,706.594397529839
178.390761,0.1645607605964084,0.32315898434269785,28.034280672538273,41.7936123058192,0.3643646036761626,740.6913125372881
178.418276,0.164435092007272,0.3231102624987984,28.028036441425762,41.8712737556705,0.36264725283992516,742.0697595680698
178.4461235,0.1643087895325878,0.3230609516214016,28.0217176345088,41.32353833131967,0.35574926753019676,732.3645206987028
178.47394400000002,0.1641799970100273,0.3230116882754935,28.015405837559406,42.47779822447997,0.3633563727806078,752.823256476229
178.5017455,0.1640538634522027,0.3229624582814685,28.00909923137233,41.871789801192044,0.3562290939118266,742.0852290036847
178.5294635,0.1639251650141523,0.32291337584130764,28.002812440535966,43.221276288845544,0.3655732444843459,766.0040716771557
178.55721899999998,0.1637997187978649,0.32286422667743864,27.996518016563147,42.201451399577024,0.35527904654702985,747.931990465931
178.584837,0.1636705963641556,0.3228153206658592,27.99025563947535,44.10344338346466,0.369282932375892,781.64300306935
178.61233349999998,0.1635463339374266,0.32276662946456985,27.984021667197094,42.973973093283185,0.35837029225503486,761.6275987033921
178.640223,0.1634182468265166,0.32271724197032087,27.977699463654762,43.215758492417095,0.3588707102532121,765.9149414670699
178.6682725,0.1632902985870985,0.3226675707607032,27.971341870996856,42.826520245836676,0.35430843685646063,759.0186271444917
178.6961315,0.1631606612921015,0.32261823650184773,27.96502832876718,44.159527589059046,0.36384252796268557,782.6458733618696
178.72380700000002,0.1630343826961464,0.3225692267915897,27.95875723110132,43.710103913478086,0.3589724030309937,774.6828596564793
178.752005,0.1629063506532255,0.32251929137386315,27.95236861658412,42.80199819731283,0.3505224116281421,758.5905054796764
178.77988299999998,0.1627751888625434,0.32246992220040627,27.94605337171786,45.02667479215165,0.36740854814183105,798.021275857273
178.80731450000002,0.1626500184798834,0.32242134329427735,27.93984011518446,44.45067732895668,0.3618411946417403,787.8149063227811
178.8348985,0.1625228820174127,0.3223724938695774,27.933593157553364,44.740059479483996,0.3633389291294581,792.9459605937582
178.862765,0.1623962303332087,0.3223231436801985,27.92728307568256,43.73409254269641,0.354595561203539,775.1190117381899
178.89033,0.1622664135514547,0.3222743269478016,27.92104210754304,45.92534636362858,0.371472782913876,813.9578805341866
178.9179785,0.1621424583295594,0.32222536184161577,27.914783073692345,43.61025419978575,0.35250950686695154,772.9285262856796
178.94613850000002,0.1620117910140754,0.32217549034916404,27.90840910928871,44.3382008426923,0.3578801108706507,785.8325845164318
178.97379899999999,0.1618830443328904,0.32212650294181555,27.902149050913593,45.32160477027456,0.3653679725655477,803.2643120213116
179.00134500000001,0.1617568976238274,0.32207771777917693,27.895915736337248,44.77853453125894,0.3608356465129598,793.6413567116679
179.02934900000002,0.1616291255498327,0.3220281209146866,27.889579629624006,43.87288238999533,0.35354281655915426,777.592072354068
179.057349,0.1614986750320083,0.32197853055171366,27.88324528027624,44.80339603447948,0.3609395308628341,794.0865353630508
179.08512000000002,0.161370858120647,0.32192934517739646,27.87696357673652,44.58959445577532,0.3593583036756989,790.2993994093491
179.112616,0.1612424376812087,0.3218806462648258,27.87074489936918,45.68116573921689,0.3682462600834993,809.6485210539889
179.140276,0.1611170784786061,0.32183165627902943,27.864489954132644,43.996516526996615,0.35517418029061065,779.7921652892738
179.1682685,0.1609870624832685,0.32178207675085935,27.858160657291617,44.48226890116547,0.35944892611752216,788.4038707416826
179.1960205,0.1608585519317178,0.32173292254467245,27.851886570271247,44.656662363309884,0.36134466733829584,791.4970639159698
179.223898,0.1607306749322863,0.32168354539302346,27.84558494179115,43.94100490525758,0.35623697855149794,778.8149299658145
179.251917,0.1606009222112218,0.32163391693271726,27.83925216509362,44.03701818019763,0.35768874807132467,780.5189123456256
179.27961549999998,0.1604716546592882,0.321584855470615,27.83299265019453,44.79676290908064,0.36455767921818544,793.9869909799235
179.3074095,0.1603447829320871,0.32153562415371356,27.826712374331432,43.52963114482615,0.35526417786455067,771.5302780807835
179.335116,0.1602145491100182,0.32148654711450303,27.82045268624602,44.85265124281835,0.36689755355764897,794.9820727566681
179.362822,0.1600884058993288,0.32143747023785396,27.814193924354495,43.2792587584707,0.3552772405844702,767.0969547210374
179.3909285,0.1599580933176384,0.32138768318466343,27.80784551882996,43.27865283225378,0.3564290131028673,767.0884167589603
179.41872999999998,0.1598281597206269,0.32133843563967956,27.80156682299023,43.94949862377286,0.3631440460093317,778.9809715639943
179.4466615,0.1597005882308896,0.32128895703751714,27.79525958666996,42.559661796894375,0.3531593040769532,754.3490210405382
179.474547,0.1595693660132043,0.32123955913174357,27.78896355433311,43.74917857649083,0.36436055416757823,775.4348276903111
