T(K),Fc,X,m(mol/kg),cp(J/gK),cp_err(%),cpm(J/molK)
175.1198905,0.8416311691577484,0.3289530552948289,28.783319082262008,2.2398479764282158,0.5113611310529385,39.682660368213014
175.1497025,0.8416063053114375,0.3289001893329919,28.77642627762364,1.824811378572857,0.5090357699708201,32.32969010557803
175.179625,0.8415802539770917,0.32884712915016906,28.769509241805203,2.2500161977181032,0.5095189457279344,39.86305097920028
175.20890250000002,0.8415551869308419,0.32879521437454123,28.762742582107894,2.34174758284237,0.5066371878927715,41.488360337337475
175.238314,0.8415302229927517,0.32874306362357014,28.755946218794353,2.255243022967643,0.5066599946127742,39.955893322531416
175.2683245,0.8415049125599241,0.32868985242862114,28.7490127452244,2.0449966441741565,0.5039308317172916,36.231092474491426
175.298251,0.8414789098386694,0.3286367918308232,28.742099989029562,2.4340646587694286,0.5021231651355134,43.124320945493615
175.3277195,0.841453728305718,0.32858454487969946,28.73529430265248,2.4859646377085944,0.4999016875508374,44.04396553216952
175.357493,0.8414284941807764,0.3285317587627174,28.72841946009759,2.3765001840433126,0.4962176418526849,42.104706261216876
175.38716349999999,0.8414027760328148,0.3284791568294888,28.721569680729065,2.733838735605198,0.4981392794249433,48.43585828622154
175.41665849999998,0.8413777035666696,0.3284268675721035,28.7147616812342,2.681511021044043,0.4931778517353852,47.508903065925296
175.446375,0.8413522710575866,0.3283741871665372,28.70790382670313,2.775377641644681,0.4898974850571022,49.17210741210586
175.4760725,0.8413268045725923,0.3283215419596708,28.701051628943638,2.9190299421863957,0.4897099297937061,51.71739063568362
175.5057205,0.841301389766961,0.3282689859950693,28.694212118101422,3.068955483468972,0.48483918444260476,54.37383439202552
175.53526549999998,0.8412759932508355,0.32821661407996205,28.687397623574565,3.293218729307063,0.48225961033221026,58.34736659328016
175.5645815,0.8412507402162339,0.32816464952076396,28.680637183180867,3.5850601352220637,0.4784674878361062,63.51823612429013
175.5942445,0.8412257216942307,0.32811207130909403,28.673797972673587,3.42495482198198,0.46987352788036163,60.6817572248427
175.6241135,0.8411998586350313,0.3280591293910694,28.666912533817214,3.8932584994917634,0.46785505130224503,68.9791546717216
175.6536395,0.8411744718589129,0.32800679682426576,28.660107411286123,4.236849975585619,0.4623160028929217,75.0669938502925
175.68350850000002,0.8411491823606118,0.3279538577073003,28.653224493675157,4.250071046596927,0.4533329401533875,75.30146996188675
175.71330849999998,0.841123191657435,0.3279010422594086,28.6463587354833,5.043760816665354,0.45300219461310065,89.36409681585907
175.742941,0.841098005675633,0.3278485250199002,28.63953281282578,5.232543705960482,0.44008500426634767,92.7091857770151
175.772467,0.8410722873814778,0.3277961978421301,28.632732654216817,6.137126889958505,0.4388809753231608,108.73674181328738
175.8016685,0.8410472695828004,0.3277444470277463,28.626008437892104,6.655225227408529,0.4313574718026734,117.91668642751694
175.83153750000002,0.8410220940677058,0.3276915145609909,28.61913175507014,6.763875450692974,0.41612831517436394,119.84210721745252
175.861853,0.8409959136525411,0.3276377921411248,28.612153553173567,7.662474412158448,0.4109230511588635,135.76387261594408
175.8914435,0.8409699549309049,0.3275853557587161,28.605343474717436,9.205017916323117,0.41124336990360905,163.0951820172122
175.92049250000002,0.8409450062767627,0.32753388014125334,28.59865920687461,10.1653336344594,0.40407919853759694,180.11066096047648
175.95014450000002,0.8409199642894996,0.327481337189082,28.59183739761836,10.592614103757391,0.38915498080716504,187.68183880248867
175.979567,0.8408939627542427,0.3274292020855875,28.585069594076735,12.846118669486925,0.395956058192548,227.61052169305523
176.00894,0.8408693011253267,0.32737715584543825,28.578314372600587,13.109412920807022,0.37707532523337195,232.27632771342115
176.038706,0.8408433694633975,0.3273244144012928,28.571469985095497,14.990102878602846,0.37843404003756087,265.59973813939274
176.06826999999998,0.8408180159024733,0.32727203200766253,28.56467325471988,16.276406200216943,0.37192427245649595,288.3917688071751
176.0975785,0.840792416893286,0.3272201034131182,28.55793645043829,18.600617940991594,0.3748431950449159,329.5740538233827
176.1274015,0.840767488778547,0.32716726433311044,28.551082594378187,18.738099039109315,0.35427529158662685,332.0110169930932
176.157221,0.8407409870536118,0.32711443254691774,28.54423076060281,22.373863654238445,0.3682840082132924,396.43252192515104
176.18622449999998,0.8407160499009769,0.32706304751400567,28.53756759051117,24.282093459937688,0.36398470070289546,430.2448706209188
176.215445,0.8406909405883704,0.3270112790353824,28.53085572740051,26.264343082089578,0.3587963957288913,465.3689619139988
176.2451615,0.8406656140673219,0.32695863283990745,28.524031125869264,27.749853512443565,0.3488659198350041,491.6917087426876
176.2749545,0.8406396331863254,0.32690585213109985,28.517190158852774,30.982300567153768,0.35279768209073326,548.9681834718064
176.30432000000002,0.8406141591600252,0.3268538297496516,28.510448529275394,33.98426312634319,0.35391389705567305,602.1610668863046
176.3336205,0.8405889012529059,0.3268019234671531,28.50372298352416,36.552769941665645,0.35128841856231624,647.6739174394683
176.36323,0.8405635242978626,0.3267494707306655,28.496927686703224,38.621855554273886,0.3446243400324916,684.3378542644307
176.3929045,0.8405377169323562,0.326696903781743,28.490118655780538,42.09005337542322,0.34752132004631203,745.7928604135141
176.4221745,0.8405122121486882,0.32664505428314317,28.483403598121058,45.864203601341224,0.35161430330923027,812.6693868262844
176.4515975,0.8404870889408199,0.3265929346380716,28.47665459579811,47.46378259139543,0.3424094941357095,841.0149091946032
176.481173,0.8404613040161616,0.3265405457279277,28.469871778920766,51.34610347725201,0.3466750611118574,909.8088406582904
176.510607,0.8404359015838143,0.32648840831557563,28.463122571193814,54.03492696657265,0.344298675916032,957.455361498265
176.5398275,0.8404103459985105,0.32643664990396354,28.456423458740193,58.39814983795216,0.35060486073744207,1034.7712431395096
176.5687085,0.8403852979925234,0.32638549363713576,28.449803293715032,61.681472521400494,0.35120615633935737,1092.9524730318901
176.597979,0.8403603152807427,0.32633364823844757,28.44309497353741,62.64155208677772,0.3409350867803318,1109.9677286807052
176.6275315,0.8403345771769606,0.3262813041265964,28.436323171850187,66.33267537869976,0.3439458116512928,1175.3755904099557
176.65724799999998,0.8403090903713639,0.32622867030560937,28.429514951179016,67.65441325062172,0.336685880473256,1198.7996386135708
176.686755,0.8402830520542129,0.32617640829830624,28.422755877227658,73.30401228774332,0.34821225273707673,1298.9113947264689
176.7157885,0.8402579129994153,0.32612498565117504,28.416106381456828,75.87129844904578,0.3468963422693676,1344.4064416535298
176.7449555,0.8402326804634415,0.3260733272471746,28.409427421555208,78.13319975625227,0.34479397342647705,1384.4904742240785
176.774405,0.8402072944645114,0.3260211691859634,28.402684899284814,79.58673106175868,0.3400677812888998,1410.2507356906226
176.80381649999998,0.8401815560240911,0.3259690790965287,28.395952205255522,83.52804927256032,0.3452781021237882,1480.0940457712286
176.8329185,0.8401562204369908,0.3259175377976299,28.38929146708853,86.38660539790794,0.3468842934368725,1530.7514231652574
176.8622,0.8401310039706235,0.32586567922075205,28.382590754667305,86.98810832042716,0.34098197600142643,1541.4145305148002
176.8915085,0.8401053409691812,0.32581377343803775,28.37588497496913,90.53812361043933,0.34603916178696514,1604.3250014453038
176.920664,0.8400800620969511,0.32576213921089875,28.36921530230272,91.9232331856439,0.3442685327964194,1628.8738315899855
176.9501325,0.8400546494224791,0.32570995124328506,28.362475140086254,91.93724947084965,0.3387535598305816,1629.1271018852337
176.9792615,0.8400288105425099,0.3256583650781246,28.355813726930307,97.44338806685971,0.35216316931752417,1726.700956700966
177.008398,0.8400039729473832,0.32560676616717027,28.349151687364134,94.39665311153297,0.3384818877331642,1672.717661415977
177.0377255,0.839978105171631,0.3255548295316557,28.342447072896157,98.00398224822958,0.34754095206929986,1736.6450773963866
177.066729,0.83995291973354,0.32550346717443895,28.33581760873274,97.87502231624606,0.3458290010142541,1734.365024988334
177.09594950000002,0.8399276003204031,0.32545172101763153,28.329139627547402,96.78909204227188,0.3424898433115421,1715.1272403903713
177.1250975,0.8399020213505731,0.32540010371909833,28.322479296534848,97.84877716980938,0.3475738953639844,1733.9102902024633
177.1542955,0.839876812654026,0.3253483983296951,28.315808620668133,94.94824601066551,0.341378509710613,1682.5170063547082
177.1837375,0.8398511307223756,0.32529626129327305,28.309083291896375,93.61611066605198,0.34198535195991425,1658.9160770722556
177.2131485,0.8398254808782454,0.32524417957785196,28.302366136815422,91.68688893184091,0.34223636310864514,1624.7343518721382
177.24233049999998,0.8397998369781785,0.32519250378381537,28.2957023595602,90.79723675191266,0.34751255490060295,1608.9740954184417
177.271704,0.8397745707332454,0.3251404892672524,28.28899593341397,85.67930656660867,0.33816371064930745,1518.2862736344011
177.301581,0.8397485766143921,0.3250875835353609,28.282175659970445,83.37401660879446,0.33624085191509057,1477.4397253508148
177.33081299999998,0.8397224153373858,0.3250358203141343,28.275503706602198,87.47077995937565,0.35327482408078187,1550.0415609525598
177.359732,0.8396975313182915,0.3249846116729269,28.268904241992303,85.18234893750022,0.3432810343710413,1509.4934679415824
177.38889899999998,0.8396719006167263,0.32493296419679013,28.262249237090717,87.42671209718397,0.34723115977939895,1549.2698369448096
177.418135,0.8396465677448216,0.324881194838204,28.255579548938872,87.27502805573047,0.341542078981608,1546.5864935546124
177.4473175,0.8396208003990452,0.3248295204960995,28.248923122199557,90.83116933809363,0.34838067261146743,1609.6090873795717
177.476664,0.8395955452202506,0.3247775560210797,28.242230349429924,89.34540337040623,0.3376992521941387,1583.2847372947974
177.5063155,0.839569474819213,0.3247250517303495,28.235469097175507,91.89421068677935,0.3412003375957117,1628.4569346867522
177.535803,0.8395436699499831,0.3246728380725341,28.228746313855883,93.31340740501413,0.3413080571977717,1653.6114924207243
177.5651305,0.8395178700197838,0.3246209079436489,28.222061067405896,95.54176663776832,0.344766518568995,1693.1054258861031
177.5941145,0.8394923289476359,0.32456958624433463,28.215455157374322,97.85239853652719,0.3492316062767485,1734.0575017015706
177.62363249999999,0.8394671144140744,0.3245173191782832,28.20872859548362,93.40994186831338,0.3327169076538331,1655.337028103134
177.653189,0.8394406216470135,0.3244649841076215,28.201994324591045,98.53175476651198,0.3482908822044977,1746.107009931947
177.68221899999998,0.8394153235408054,0.3244135814449019,28.195381047921003,97.20629208367156,0.34447268212091964,1722.623244472749
177.7113555,0.8393897369873031,0.3243619903336387,28.188744537976664,96.76545072373877,0.34576481360831623,1714.816057287836
177.74062550000002,0.8393642361741387,0.32431016295049553,28.182078655209637,93.66879420912673,0.3415874501685592,1659.9440314114738
177.770018,0.8393383992230287,0.32425811875722843,28.175385915905675,91.12274578956928,0.34309837351345224,1614.8292841394766
177.799357,0.8393126672041893,0.32420616937369034,28.168706396897143,86.64020559360382,0.34311927875416615,1535.3966678670702
177.82880649999998,0.8392869076646577,0.3241540243947682,28.162002761392465,80.5586732293949,0.34114290034322325,1427.6269254332356
177.8584085,0.8392609651517111,0.3241016094363307,28.15526546036438,74.62604080654691,0.34036501522627316,1322.4953055866656
177.887644,0.8392349211728158,0.3240498434512957,28.14861260245082,71.57826832424374,0.35037100475864,1268.4875863580608
177.916964,0.8392096059541784,0.3239979278568703,28.14194154037489,64.02446203269741,0.3394553030789341,1134.624800465065
177.946841,0.839183396798895,0.32394502600157055,28.135144799469806,59.30918510063833,0.33885302160568803,1051.065099717137
177.976336,0.8391570858926042,0.3238928005128696,28.128436000309314,57.10180710429129,0.349119138014849,1011.949451035057
178.00564400000002,0.8391315315325255,0.32384090609650057,28.12177075666917,52.19644961739188,0.3442141302447195,925.0202271809827
178.034998,0.8391055326523461,0.32378893017269694,28.11509606976431,49.45336827692479,0.34942239068505676,876.4102421419155
178.064581,0.839079880884129,0.32373654869288104,28.108370339873407,44.596023053881794,0.34081711118170044,790.3309878937876
178.0943665,0.8390534620251974,0.3236838085604265,28.101599611896283,42.40005408160368,0.34677103193310355,751.4162975365284
178.12404500000002,0.8390274368962843,0.32363125777808,28.09485424272672,39.24190538909728,0.3451528540578982,695.4495044326821
178.1537725,0.8390011892225497,0.32357862010435007,28.088098770949117,36.92442931328708,0.34753095380930205,654.3809161832747
178.18336299999999,0.8389750606970146,0.32352622486754873,28.0813754573687,34.74793363266864,0.35028532683249153,615.8105557758902
178.213076,0.8389490373280314,0.32347361255948837,28.074625337270863,32.040811500774836,0.34767203584706036,567.8360618321029
178.24268949999998,0.8389226756666146,0.3234211762542794,28.067898842755703,30.76250202599108,0.35503857890453033,545.1831584529841
178.2721885,0.8388968107190439,0.32336894249701104,28.061199367478288,28.427927628432148,0.3527611474366729,503.8105819420702
178.30199299999998,0.8388706338237247,0.32331616757607634,28.054431533227177,26.369828673442903,0.3517359435267985,467.3375888651647
178.3319535,0.8388442126343145,0.3232631161888372,28.04762930893045,24.70722653281886,0.35321907430707433,437.87356892638763
178.3615705,0.8388177429224094,0.32321067279019144,28.04090608879732,23.989041571490876,0.36234219865465894,425.14682880490017
178.3913175,0.838791910929874,0.32315799892971886,28.0341543723029,21.568130911652318,0.3544212596437362,382.243295570045
178.421286,0.8387651940391867,0.3231049325633131,28.027353407108464,20.80952151519928,0.36181682838092244,368.7998951965469
178.4507585,0.8387389533737837,0.32305274418229807,28.020666004134082,20.01581140540403,0.3685981944503013,354.73431498885293
178.4804675,0.8387130956842243,0.3230001367001664,28.013925941158735,18.06729361613773,0.3611169725851748,320.20228079048627
178.509997,0.8386864194024408,0.3229478467346672,28.00722759632101,18.140842870197474,0.37671275528606013,321.50674571830393
178.5394155,0.8386608621450949,0.3228957529760047,28.000555414335356,16.256006095004835,0.3690617946057246,288.10300340531444
178.5691165,0.8386343646969764,0.32284315860114576,27.993820154727725,15.736148754668,0.37591318794130407,278.89048755638976
178.59873,0.8386082903836306,0.3227907187833473,27.987105729327023,14.646385067594267,0.37636144983609354,259.57747895055405
178.628424,0.8385819302520806,0.32273813600979134,27.980374043826608,13.977842328746945,0.3793929682038771,247.72966542921043
178.65806800000001,0.8385556959569976,0.32268564135486233,27.973654681930295,13.207464111369994,0.3814723761946269,234.0769405554931
178.68802449999998,0.8385294068356655,0.32263259286746665,27.9668654870069,12.139379828488371,0.3803088168441369,215.1478555788075
178.71812649999998,0.8385026009633786,0.3225792862515997,27.96004432765155,11.70103641606376,0.38489768363301086,207.37967387535218
178.747706,0.8384760360250847,0.3225269044373469,27.953342552353842,11.615151887316213,0.39455876715143295,205.85814787073167
178.7775295,0.8384501389538949,0.32247409003274,27.94658648021251,10.281599095298636,0.3879087377259564,182.22382386026035
178.8073525,0.8384231232066157,0.32242127599912657,27.939831508732613,10.549822687908355,0.4004337909960297,186.97819930469333
178.836836,0.8383972095470533,0.3223690626688117,27.933154402906457,9.733401235623578,0.39885035225229937,172.50899549952055
178.86651849999998,0.8383707784968512,0.3223164963805331,27.926433199730923,9.398110616660155,0.402896419311959,166.56700943319686
178.89612449999998,0.8383444939714721,0.3222640650112414,27.91973028610015,8.977052585715027,0.40541781873367083,159.10488646551764
178.925978,0.8383181810627457,0.32221119474419047,27.912972313133874,8.339968763797136,0.4069549730223705,147.81397515723526
178.9559155,0.8382914388482087,0.3221581751091619,27.906196306370774,8.150886763458274,0.40925926147824143,144.46320968736822
178.985815,0.8382649586790528,0.3221052221505896,27.899429878915356,7.7032534831645565,0.4110838068307321,136.52994487819248
179.01567649999998,0.8382382658269848,0.32205233585341175,27.892673024602328,7.563519536771921,0.4174806652982154,134.05375484822264
179.045321,0.8382118352243414,0.3219998332270892,27.8859662314821,7.347582086263612,0.4195733821087347,130.22693262000098
179.074908,0.8381855104763095,0.3219474317771976,27.879273398480304,7.068144804247036,0.4220945314744735,125.27462600569021
179.1047235,0.8381591643588241,0.3218946249470879,27.872529835818504,6.588828932352655,0.4235856831346002,116.779666524083
179.134703,0.8381324147329735,0.3218415269430516,27.865750148444356,6.3960961419923485,0.42534214164571876,113.36403914354197
179.164263,0.8381057583657924,0.32178917121944567,27.85906627673612,6.513164087150442,0.43278838254283164,115.43929308720419
179.193621,0.83807973816095,0.3217371725530042,27.852429009237014,6.138770969421059,0.4349383817589368,108.80387719835309
179.22328,0.8380534239134145,0.3216846400135065,27.8457246298936,5.8044514078164635,0.4342210331341961,102.87869249104686
179.2530845,0.8380268492129939,0.3216318489913716,27.838988308171757,5.6124274863292944,0.4357199148265152,99.47554354307867
179.283053,0.8380002573662576,0.3215787666892298,27.832215875147547,5.294337819053757,0.4386209950435439,93.83795963707314
179.31262049999998,0.837973371665444,0.32152639386698617,27.82553499871698,5.635998852247359,0.44687483114636856,99.89393342501728
179.342276,0.8379474774952487,0.32147386435619135,27.818835170474042,4.910671044256211,0.4419122273222746,87.03829520831091
179.37223649999999,0.8379204162440878,0.3214207937459991,27.812067381568564,5.071340913587481,0.4458958604166151,89.88633407261494
179.4018425,0.8378939593165657,0.32136835022857807,27.805380602015184,4.957086910703664,0.4498525604663764,87.86151923075357
179.43139150000002,0.8378675129812637,0.3213160068188838,27.798707617087537,4.8840622038399495,0.4523189118280285,86.56745945254518
179.4610165,0.8378411398300144,0.32126352790171664,27.792018390254327,4.674887688390942,0.4503430255755797,82.8602007638005
179.49093499999998,0.8378145394245141,0.32121052815520756,27.78526382566313,4.434927738183566,0.45146468821093305,78.60726289927992
179.5209105,0.8377876229513362,0.3211574264988341,27.778497330897988,4.442066198169551,0.4543432636594603,78.73403017821546
179.5506765,0.8377609020162311,0.3211046950278484,27.771779054595576,4.44192841268039,0.4561686760932055,78.73182731545856
179.58038950000002,0.8377343419021959,0.32105205649271823,27.765073659638812,4.331118750263898,0.45707687688252163,76.76799277519694
179.6099115,0.8377076973729832,0.32099975536455644,27.758412275171917,4.456985755735674,0.4616074032500933,78.99919204273836
179.6394865,0.8376814610975281,0.32094735936344104,27.75173983604137,4.163113417147522,0.4573775954556528,73.79058578149316
179.6692525,0.83765470320165,0.32089462397526164,27.745025216851452,4.175480859855942,0.46264234007691757,74.0100219183104
179.698889,0.8376281063088519,0.32084211699883836,27.73834071655168,4.129756847777901,0.4622223557391292,73.19978949336523
179.7284605,0.8376015620631857,0.3207897241528794,27.731671775982996,4.082485018514295,0.4644444382281338,72.36211659979115
