T(K),Fc,X,m(mol/kg),cp(J/gK),cp_err(%),cpm(J/molK),cp_SMA_1K
181.8958075,0.8359468587760976,0.3169458379274872,27.24518506004429,3.9777101326266746,0.4888766748643361,70.52060314423663,
181.924124,0.8359213651814192,0.3168955516573549,27.23885705204252,3.510821952737769,0.4840869948452211,62.24334879676408,
181.95286,0.835894789301468,0.3168445183019418,27.232435983527942,3.649396547033641,0.4848715318958073,64.70032754310664,
181.981585,0.8358685054809822,0.3167935023429531,27.226018062625528,3.541650934806369,0.481187308478387,62.79028500247796,
182.0101495,0.8358419304918847,0.3167427692989422,27.2196366834964,3.830398190453968,0.4861977837294805,67.90971265198347,
182.038313,0.835815923075763,0.3166927463674986,27.21334555258685,3.935859843812049,0.4859154569807666,69.77965953497682,
182.066668,0.8357900675156128,0.316642381182232,27.20701230866316,3.71822108444522,0.4818775524151984,65.92128906429285,
182.0952135,0.8357636885793924,0.3165916754622678,27.20063718667721,3.7920753182033766,0.4831924872832525,67.23086606536216,
182.1237855,0.835737463179961,0.3165409204838489,27.19425681884826,3.6933427414727102,0.4800971136424937,65.48059748058958,
182.152121,0.8357110161950037,0.3164905834471495,27.18792992603417,3.972261921210817,0.4848662282511423,70.42585991803726,
182.180323,0.8356852079957209,0.316440481404812,27.181633495109075,3.773615199921741,0.484189576475853,66.90416395413857,
182.208781,0.8356589882624296,0.3163899223655214,27.175280568000083,3.738185800890977,0.483999464640566,66.27621292091861,
182.2370705,0.8356326888558306,0.3163396604801934,27.168965910740926,3.9167155619999128,0.4869275558096673,69.44165975472194,
182.2656155,0.8356067612383282,0.3162889424047381,27.16259488108835,3.552051594360377,0.4809126614994036,62.976510633322896,
182.294123,0.8355799707544157,0.3162382886946656,27.15623288013784,3.980118828135048,0.4853615252799666,70.56618429546472,
182.322451,0.835554093487047,0.3161879516752274,27.149911588590157,3.722307968864219,0.4831728558686688,65.9954748814109,
182.3508515,0.835527615293913,0.3161374835575271,27.143574768024653,3.924144912084756,0.4828775975322202,69.57418956057398,
182.379176,0.8355015851247083,0.3160871482147934,27.137255550340036,3.765532493256217,0.4821972556098595,66.76222141283712,3.732180649308624
182.407435,0.8354752282318795,0.3160369269907268,27.130951586330102,3.9339005502898376,0.4866573050546291,69.74755899233783,3.7142641065910733
182.435713,0.8354493003394693,0.3159866697057376,27.1246440225016,3.685152362268005,0.4844986119433141,65.33747433655415,3.7250823621732683
182.464411,0.8354228891004171,0.3159356636117107,27.11824342668098,3.5202148732083702,0.4840939327284339,62.41332852203306,3.7241383056170103
182.4931205,0.8353961643861422,0.3158846346841421,27.11184092061923,3.618223514780185,0.484760008977791,64.15120813600466,3.7417969866544274
182.5215705,0.8353697122972057,0.3158340646214054,27.10549692971317,3.6847606820180503,0.4862497543088058,65.33110444681134,3.7376196724881336
182.549887,0.8353434487942828,0.3157837294927845,27.09918334242018,3.6893368905390913,0.4877395551570225,65.41243074500859,3.7311464511694097
182.5779175,0.8353172248133267,0.3157339004194376,27.09293414506772,3.893819426934104,0.4899583689175578,69.03813140002585,3.7386926201145423
182.606337,0.8352914725993542,0.3156833774451115,27.086598852916868,3.3654415085322964,0.4826217748374843,59.67006789928863,3.747822920292598
182.634909,0.8352645077549894,0.3156325809268727,27.08023020293114,3.76532233467663,0.488231957127376,66.76024424367264,3.746919285726977
182.662901,0.8352384534964808,0.3155828131750933,27.07399145210009,3.8271769923453656,0.48915997279191,67.85713967570663,3.7365876688243214
182.6913625,0.8352125457404148,0.3155322082549369,27.06764868636537,3.369272469353,0.4842222785951572,59.73851216745053,3.7438134448844185
182.7200685,0.8351856003765701,0.3154811661131617,27.06125206974917,3.608868105078688,0.4885453997960787,63.9868242570103,3.747447744113023
182.7482975,0.8351592190968693,0.3154309696652913,27.054962366048937,3.7400564095148905,0.4897880371882638,66.3130426241214,3.7463867790879015
182.776461,0.8351331403981341,0.315380887244225,27.04868786929392,3.6471903321050334,0.4884482856819001,64.66666796465897,3.7540286904203244
182.804377,0.835106861552676,0.315331242523074,27.04246911501933,3.945437365711887,0.4921141729770346,69.95495020015983,3.7536646992577904
182.832438,0.8350812241765418,0.3152813374951669,27.03621866224732,3.5484797720925645,0.4857018661422401,62.91683700703285,3.748652090551178
182.8607275,0.8350546563480677,0.3152310235975122,27.02991792206032,3.7892581100379736,0.4884324011721301,67.18618717685418,3.743505424881801
182.88933,0.8350285747851157,0.3151801504578327,27.023548090091275,3.3506311375124285,0.4825052581743879,59.40919943034662,3.7474932152054503
182.9178945,0.8350014043705959,0.3151293423226238,27.017187341846697,3.889460898114584,0.4866735278613725,68.96325655171565,3.7377436250823637
182.946219,0.8349753741071609,0.3150789585161938,27.01088064787606,3.616354567564626,0.4836505662052511,64.12104877492628,3.743093193986745
182.974314,0.8349486307162678,0.3150289804109153,27.00462565336562,4.159704771115962,0.4901481918991933,73.75532341849491,3.7452509603015147
183.002394,0.8349230090577905,0.3149790264529901,26.998374593058504,3.684192194633688,0.4803018517737307,65.32424391724967,3.7470397628291283
183.031054,0.8348962739506935,0.314928038054085,26.991995026632654,3.709297097656715,0.4805638988282773,65.76957106291837,3.751609584351671
183.0593895,0.8348695511764721,0.3148776243419728,26.985688297439104,3.9823369975248695,0.4855854350463996,70.6110484516814,3.752167777122554
183.0872675,0.8348434016725692,0.3148280220408703,26.97948398113079,4.111635824435304,0.4869664552332904,72.903861849214,3.7487765817062773
183.1155345,0.8348175132966398,0.3147777250003453,26.9731936831718,3.661715531675984,0.4799129014867466,64.92646440821524,3.7675672869311345
183.144385,0.834790617958048,0.3147263869858988,26.96677415015033,3.6106553296178703,0.480303085858561,64.02129719454085,3.7583096965631855
183.1727625,0.8347636199159791,0.314675887956567,26.96046046588208,4.0265173620251495,0.4868916564926708,71.3952430621072,3.7614738323261325
183.200785,0.8347375883670033,0.31462601802961,26.95422634875868,3.865386273892122,0.48568805282252,68.53838214002398,3.7651575705226823
183.2289375,0.834711234007915,0.3145759140984808,26.947963892904163,3.879581786120655,0.4844720013495206,68.79028586068041,3.7709457573326186
183.257109,0.834684939993586,0.3145257736789756,26.941697792886625,3.819518490995182,0.4853814023648029,67.72547725899194,3.770713623059927
183.2851505,0.8346585304683036,0.3144758619678189,26.935461185152334,3.967379137446349,0.4873062422414158,70.34745845805664,3.7749986871746324
183.3135055,0.834632460246554,0.3144253895292544,26.929155436406315,3.5468666641328093,0.4828628917388544,62.89133767825047,3.769649195744175
183.3421045,0.8346054439592842,0.3143744799800172,26.92279601795085,3.744011613656556,0.4852179153887834,66.38721208178767,3.7740110405566556
183.3702415,0.8345788969880494,0.3143243901003483,26.916539911013484,3.905105154583928,0.4887081603282179,69.24385369712779,3.7776708453543084
183.398539,0.834552726145156,0.3142740117374767,26.910248695093955,3.59266489598182,0.4825495535929918,63.70396565412077,3.7892647199648097
183.4268555,0.8345258584040377,0.3142235967655226,26.903953832792705,3.872387273921348,0.4863504981998356,68.66411138039798,3.779555024992064
183.4551565,0.8344996322451154,0.314173206594421,26.89766299193496,3.595736694225297,0.4834593406553762,63.75880415224145,3.790330581470549
183.4836905,0.8344727733557296,0.314122398721615,26.89132093998139,3.6808316032466735,0.4851941080710725,65.26787926456485,3.7781974110264156
183.511931,0.8344460900660375,0.3140721106326091,26.885044694788725,3.8447044353070168,0.4885244806895151,68.17384197823381,3.7819431884846764
183.5401445,0.8344197619090042,0.3140218678030635,26.87877501720267,3.708873637520026,0.4841867428363623,65.76549682641118,3.783073267884252
183.568457,0.8343931092462001,0.3139714458267279,26.872483907599968,3.7751275873644174,0.485783683127964,66.94050188897128,3.7819443941849222
183.596411,0.834366575216271,0.3139216594949656,26.86627301415451,4.0231161914022895,0.4898194623545361,71.33803650481819,3.7715107472255927
183.624777,0.8343405763653248,0.3138711365185085,26.8599711450078,3.4413066717984018,0.4817322123319071,61.02154748342725,3.771234003686514
183.6532345,0.8343132476615223,0.3138204476528174,26.8536495166239,3.937921744048521,0.4892913359220773,69.82777284847312,3.771855279997563
183.6816085,0.8342870569270018,0.3137699045951347,26.847347002466663,3.498203306232278,0.4799371195292362,62.03080537509438,3.762403352626921
183.710116,0.834259864549632,0.3137191207782941,26.84101540159546,3.811454643426432,0.4881853614870945,67.58563535607483,3.761884532312892
183.7383295,0.8342334025342226,0.3136688577703631,26.834749656518827,3.731931709970673,0.4863044761689796,66.17570713851806,3.7519890123534108
183.7665695,0.8342067431219634,0.3136185446211331,26.828478579911025,3.797167576119708,0.4868772276278355,67.3326838539865,3.7499762365096387
183.794798,0.8341802111225151,0.3135682490165742,26.822210608903998,3.758205165645903,0.4848784524904356,66.64198210800717,3.741128438087918
183.8231835,0.8341535531499705,0.3135176706984849,26.81590833160354,3.701144340529362,0.4825104110791035,65.63034824162098,3.749139819316684
183.851424,0.8341267049453418,0.3134673477659905,26.809638798036243,3.9173512779558655,0.4870490804594101,69.46442786991808,3.7519443079583334
183.879626,0.8341003001265163,0.3134170904577668,26.80337835758625,3.7564167488799622,0.4850810085750708,66.61084938666544,3.7437378327656194
183.9082855,0.8340735041412229,0.3133660147975258,26.797016915812023,3.54962157406848,0.480948970494244,62.944028774924114,3.738129536965231
183.936667,0.8340462155373907,0.3133154315174005,26.790717732364516,3.993499044311577,0.4872863094338736,70.81533796851119,3.739695123751611
183.9648235,0.8340199238450551,0.3132652462248884,26.78446902773201,3.735043805571315,0.482366884802141,66.23243210050519,3.742518406943458
183.993197,0.8339930394073065,0.3132146711002533,26.778172707950308,3.815294405672809,0.4843683817254216,67.65568952952982,3.7453332724270774
184.021559,0.8339663175557884,0.3131641133926799,26.77187948327467,3.748849876641883,0.4836269670811693,66.47763849077641,3.7416370638711975
184.0497535,0.833939434211195,0.3131138512011822,26.76562396158721,3.94282641804832,0.4871899879414543,69.91758992766651,3.740488449109707
184.0779175,0.8339130086474706,0.3130636403153859,26.75937573930912,3.746458180858737,0.4838135890045263,66.43561163058433,3.7437964710416742
184.106394,0.8338861624596283,0.3130128691737073,26.753058727706595,3.652029507808259,0.4843725900668663,64.76130578130173,3.7324932095126973
184.1349775,0.8338591251530695,0.312961904081657,26.746718523539208,3.632400000504591,0.4833779113803568,64.4134056070773,3.7446335929074737
184.1634925,0.8338320555730824,0.3129110579397713,26.74039405439867,3.6956999040526615,0.4849815987844711,65.53609578808052,3.7402195501729256
184.1917405,0.8338051270195317,0.3128606847430676,26.734129335245093,3.8472275629011032,0.4860774661234849,68.22334400960612,3.7572680176038236
184.2201715,0.8337785424345727,0.3128099820302017,26.727824562923168,3.5332385875388264,0.4839358027089547,62.65552320992462,3.749843176121367
184.24869,0.8337512462161643,0.3127591200527618,26.721500921081944,3.749071336463153,0.4861406537756327,66.48311704439665,3.7472361192953567
184.277018,0.8337244750720223,0.3127085946199884,26.71522004832948,3.6577061926861294,0.4867543962694639,64.86310743592203,3.7543324210174602
184.30522,0.833697519056705,0.312658290730652,26.708967633218283,3.827265007139604,0.48727865228167,67.87013713583468,3.761196862484254
184.3331815,0.8336709663576372,0.3126084126670341,26.702769048737512,3.842168716114322,0.4892583984027946,68.13462527977995,3.7594029005056484
184.3613915,0.8336444462234682,0.3125580881303084,26.69651589052049,3.617878522838912,0.4858501516315419,64.15738882408681,3.7603701729973955
184.390158,0.8336174011795392,0.3125067675196706,26.69013990632049,3.3963745429682337,0.4826711295483814,60.22954201694018,3.7575449976561677
184.418581,0.8335898030564586,0.3124560564212032,26.68384058182209,3.9271828114446494,0.4895126901188286,69.64282363355927,3.76602235911322
184.4466805,0.8335633896919952,0.3124059192539688,26.67761346442397,3.694551605939922,0.4844481830466011,65.51763988559041,3.7667475017629433
184.475016,0.8335363852725759,0.3123553577191154,26.671334559497744,3.779351895173372,0.4840096778655233,67.0216481622956,3.752899942967665
184.5033895,0.8335095025446098,0.3123047250642897,26.665047747888188,3.715337135851206,0.4845536509343069,65.88662598528992,3.7595343292147105
184.531954,0.8334824047764956,0.3122537482062034,26.658719133371243,3.66867212086786,0.4819136693691271,65.05927430859187,3.7583730001294207
184.5603585,0.8334551374103336,0.3122030535282492,26.652426480948776,3.890908354983276,0.4837778548230469,69.00055525578428,3.7595886890612444
184.5888585,0.8334283230932565,0.3121521850267395,26.64611318439404,3.627502037888082,0.4796488169101993,64.32955124968677,3.7560247962521545
184.617415,0.8334008524157384,0.3121012122702754,26.63978788532225,3.866220090615569,0.4844454742210154,68.56314106157731,3.7632905793257465
184.6457925,0.833373909324661,0.3120505556296241,26.633502742246915,3.7834302483393385,0.4841674426416068,67.09515052709646,3.7702822723572234
184.6739105,0.8333467583473044,0.312000358870184,26.627275571180707,4.094899666313738,0.4842803498340875,72.61894262899506,3.7695406749755844
184.7023145,0.8333202891895045,0.3119496481372508,26.620985561619264,3.551585191540461,0.4789640676572785,62.98398883164303,3.7745291983373632
184.7312415,0.8332925712848408,0.3118980001452527,26.61458025017609,3.640684721060278,0.4812202455077805,64.56427646291516,3.7803640452676373
184.759539,0.8332650828006941,0.311847472642086,26.60831483059936,4.045538136393348,0.4865016284174392,71.7441973449862,3.792495450289275
184.787371,0.8332385450289674,0.3117977729780198,26.60215296074368,3.998460616983704,0.4871609415004527,70.90952040824496,3.7889689286119577
184.8156685,0.8332119244258683,0.3117472386509751,26.595888520057493,3.638355671278135,0.4828878172861048,64.52353333682306,3.7929357482711974
184.8440155,0.8331844763802231,0.3116966124562257,26.58961361344086,3.951205815167032,0.4847356770246679,70.07190248354652,3.794554373460281
184.8723435,0.8331577402073213,0.311646016711892,26.583343403192146,3.657535611936975,0.4793653452458674,64.86405362111692,3.7994918608056025
184.9008125,0.8331303068865886,0.3115951656108425,26.57704247586663,3.846329225065325,0.4853889086000876,68.21238739487829,3.8058985402799985
184.9288655,0.8331032798134983,0.3115450540995044,26.570834101226,4.018879037051901,0.4885262062510735,71.27266264393589,3.80597972396728
184.9576705,0.8330766211772,0.3114935956847278,26.56445979760864,3.2503792477365643,0.4757636128729471,57.643902267763245,3.806631975729477
184.986426,0.8330481327158201,0.3114422220524301,26.558096946639942,4.04749792431939,0.4838126260164255,71.78062853475926,3.8034438216427087
185.0145825,0.8330215475091608,0.3113919150301075,26.551867120060628,3.7082033586567342,0.4831306146195395,65.76357648890031,3.8054700035168114
185.042815,0.8329941843405411,0.3113414686850066,26.54562095426024,3.9853755306621648,0.4851961815412509,70.67932499273296,3.8050138931866186
185.071162,0.8329674324937802,0.3112908141753199,26.539349934641947,3.621721932540568,0.4828753024150984,64.23023542350488,3.8022898283098745
185.099612,0.8329398280840152,0.3112399719960799,26.53305660909549,3.906331915384012,0.4851612091228232,69.27791758142922,3.804066359519793
185.1277755,0.8329128573573463,0.3111896382330156,26.526827131260827,3.8771092566062575,0.4828275606019056,68.7598597069607,3.7987362017207804
185.1562485,0.8328857809808435,0.3111387476978775,26.520529670931733,3.669743995695288,0.4807710347077767,65.08246362407947,3.790509474713962
185.1845575,0.8328581945479754,0.3110881466481788,26.514268955515657,4.021825880563378,0.4861564248332674,71.3268009938751,3.788343939376981
185.212771,0.8328314116437259,0.3110377126797538,26.50802982765266,3.737458230098429,0.4823596423417982,66.28375318518603,3.786753131450687
185.240794,0.8328039868460149,0.3109876156546814,26.50183328690582,4.1736705122204825,0.4867444727345909,74.02018365735373,3.8010505835252704
185.269053,0.8327775490112959,0.310937093092156,26.4955850236225,3.534277933980028,0.4790737407417428,62.68071772885118,3.7781555586224043
185.2975335,0.8327496486253783,0.3108861708136056,26.489288253454383,3.966103695212982,0.4865715641641124,70.33939045004583,3.7781268044757246
185.325549,0.8327227635116788,0.3108360762945082,26.48309474745781,3.89882059773225,0.4861753725417406,69.14631509865578,3.7850086463167094
185.3537545,0.8326957359399219,0.3107856383696571,26.47685969362069,3.790690579925151,0.4841006193842572,67.22880429974886,3.778032845443318
185.3822805,0.8326684636668465,0.3107346235614149,26.470554254633605,3.620608324572079,0.4809350025022055,64.21254354268298,3.7812693778627735
185.410616,0.8326407970795611,0.3106839456834308,26.464291384362195,3.93002424049953,0.485306601525806,69.7003284706788,3.776850507792595
185.438799,0.8326138700164517,0.3106335368274693,26.45806267384748,3.7173804176168006,0.4831613442425264,65.92920877830962,3.764519866596235
185.467261,0.8325864753259917,0.3105826251625897,26.451772758880917,3.667766502136464,0.4857734559346439,65.04947720989017,3.7819483330721484
185.4956005,0.8325589886018645,0.310531928830895,26.44551037042774,3.786253501444829,0.487015915725659,67.15109320129477,3.769487960408305
185.5239165,0.8325318082331555,0.3104812707477406,26.439253626551785,3.652708259311108,0.4848675030201531,64.78279083612581,3.7719107419356566
185.552195,0.8325043448029308,0.31043067595831,26.433005617599463,3.79556608429724,0.4860246183623622,67.31664919024317,3.7648623566176047
185.580428,0.832477215030611,0.3103801587792095,26.42676810751341,3.689680630235236,0.4843786411677149,65.43889738186881,3.7631861569333416
185.6088055,0.8324498174662035,0.3103293792108291,26.42049912032842,3.679664567650113,0.4865432942676017,65.2614468910336,3.7618516361491263
185.6374195,0.8324223866317463,0.3102781725342807,26.41417833930714,3.4954948031006965,0.4823844286794033,61.99524909068362,3.766326337411236
185.6656215,0.8323945096470684,0.3102276993062541,26.40794901112601,4.019105929519394,0.4898091871438744,71.28209647055472,3.7638925024006857
185.6938045,0.8323678534694995,0.3101772562478921,26.40172431720132,3.495906914120148,0.4834557545768787,62.00291867674749,3.7606590047367865
185.7218385,0.8323399908624953,0.3101270760594703,26.39553296472208,4.141095543670728,0.4925571373279592,73.44610678254983,3.7593839409895
185.7502045,0.8323136017328027,0.3100762977116676,26.389268726696347,3.2442122647930445,0.4815878741470593,57.5392320632464,3.745621882047658
185.77875,0.8322850738273896,0.3100251940775333,26.382965290838328,3.9974542218499,0.4891593763372623,70.89891306411019,3.7479271044735016
185.806517,0.8322583155324037,0.3099754803289391,26.376834187920267,3.879220135712628,0.4867730185224622,68.80210844500155,3.745864105117669
185.834635,0.8322312733678764,0.3099251342960202,26.37062600687525,3.707052784598316,0.4870954408314031,65.74872746514743,3.7405872501176085
185.8628865,0.8322038131942401,0.3098745453050645,26.36438877898388,3.77081424661793,0.4859953714714207,66.8798032314114,3.7300162751815393
185.8911575,0.832176490287901,0.3098239174467139,26.358147674461044,3.691668772609064,0.4848171848611449,65.47625661038468,3.731068001722793
185.9196575,0.8321489700459046,0.3097728754814537,26.35185644810307,3.5873065951793164,0.4848113058017357,63.62545296614384,3.7256428562825548
