T(K),Fc,X,m(mol/kg),cp(J/gK),cp_err(%),cpm(J/molK)
175.11875,0.7598651150622436,0.328955077791001,28.783582802258703,1.8642087967678427,0.4784884403202485,33.02757896382632
175.148352,0.7598261388473774,0.32890258415279594,28.776738497113037,2.139478685396509,0.48290563466516867,37.90456051786896
175.177889,0.7597884568217461,0.3288502074715226,28.769910508295606,1.9762866413426607,0.47748252914513484,35.01343733727183
175.2074455,0.7597496266616466,0.3287977978840915,28.76307929636482,2.219492722250778,0.4772527108688458,39.32238503458802
175.23710499999999,0.7597118724861216,0.32874520731961426,28.75622556763389,2.021288116498945,0.47368049466778217,35.810935473197176
175.266867,0.7596727529732831,0.32869243666272085,28.74934944819778,2.2765268743125233,0.4756720519504937,40.333094748936446
175.296118,0.7596347111774472,0.3286405736505401,28.742592649870947,2.3864732177203742,0.47283702272721195,42.28113421357454
175.325503,0.7595968945579952,0.3285884746268436,28.73580615456707,2.3434022905586347,0.4678999609577267,41.51817156025201
175.35510499999998,0.7595584833277945,0.32853599244379456,28.728970813140748,2.422766942035416,0.4662167021031315,42.92440884752494
175.384497,0.7595200817385316,0.3284838841230859,28.722185221026134,2.610723734699055,0.4666332177442398,46.25459750636296
175.413851,0.759482193481785,0.3284318446922457,28.715409650739904,2.617227710716706,0.46205315569371475,46.36996862685098
175.4436055,0.759443868454962,0.3283790967779933,28.70854290694528,2.594420519499975,0.4563348770211994,45.966028701996
175.47341749999998,0.7594049179244843,0.32832624845707836,28.701664173772954,2.7901018236361432,0.4569072825997873,49.43311634928328
175.50278350000002,0.7593664210595705,0.3282741922454219,28.69488959963932,3.053641665889684,0.45558790245258435,54.102497502518546
175.5324235,0.7593286069928166,0.3282216517892107,28.688053070738256,2.9054905087658947,0.44653633472331267,51.47780470391375
175.5623455,0.7592893754060929,0.32816861292977284,28.681152774506238,3.199843307071459,0.4445492152034254,56.693151192780476
175.592127,0.7592508057621584,0.32811582456947835,28.67428614965193,3.310056109052649,0.4389915703742956,58.646022552899474
175.621428,0.7592119165065746,0.3280638893019906,28.66753154662837,3.863298737153632,0.44253626661411133,68.44832112079942
175.6507745,0.7591745745909781,0.32801187475648474,28.660767679319378,3.720073111984505,0.4292918506416554,65.91090674654653
175.680651,0.7591355443045447,0.32795892221347034,28.653882912203162,4.050087440495581,0.42596428185611607,71.75820011552494
175.7100355,0.7590968005487204,0.327906843030471,28.64711275551057,4.5968106276367156,0.4275213443497995,81.44511753827483
175.7395995,0.7590590286090618,0.32785444704430344,28.64030247396303,4.594408829001184,0.41195974142332,81.40280905948335
175.7692475,0.759019794511078,0.3278019035078259,28.633474080419216,5.319031463020557,0.4134126055852032,94.24181232490432
175.79872,0.7589817813925019,0.32774967229410856,28.626687333289,5.586437003434469,0.40401707990586316,98.97996226527619
175.828097,0.7589429816152035,0.32769761159087085,28.619923791080815,6.435437585783441,0.40340394965449067,114.02281659215235
175.8573935,0.758905195152558,0.3276456947862389,28.613179986739656,6.847284288920641,0.3928638060215781,121.32026265862656
175.8871365,0.758866582557016,0.3275929879797011,28.606334629294135,7.4817794058031035,0.384286147487043,132.5626574554635
175.916567,0.7588276088517968,0.32754083616568125,28.599562408321535,8.71681640999683,0.3865453365928618,154.44558848004087
175.94591350000002,0.7587897888718962,0.32748883439186394,28.592810716769463,9.302002647802391,0.37529771240585025,164.81448201190705
175.97569900000002,0.7587510114372191,0.3274360559093238,28.58595924819635,10.213439099866473,0.3690915196527008,180.96402055482747
176.00523650000002,0.7587120226173858,0.32738371804222016,28.57916604017268,11.613890817037488,0.37085835840248577,205.77816145230196
176.034636,0.7586738698009879,0.32733162583898595,28.572405767837513,12.512999079534382,0.3638775423044002,221.70947882293697
176.064322,0.7586352183760524,0.32727902712937756,28.565580825856703,13.559742800689596,0.3591917480527745,240.25676093673871
176.09363050000002,0.7585962939980201,0.3272270983888333,28.558843862538026,15.435657073380836,0.36603025120320604,273.49575369546864
176.1227595,0.7585586064436747,0.32717548875229785,28.552149328459866,16.325664992339988,0.35748238605469546,289.26616595881717
176.15261700000002,0.758520128454211,0.3271225894723971,28.545288574293952,17.04934077343779,0.3465971796364739,302.0895311179567
176.182501,0.7584805126488998,0.32706964432263813,28.538422951108075,19.07273519574873,0.3533174990202989,337.94217036785443
176.21184749999998,0.758441941979871,0.32701765248966047,28.5316819998405,20.80042120610682,0.35459114280025344,368.55545314887115
176.241129,0.7584037092373269,0.3269657768174503,28.524957147273934,22.26432910819242,0.3517265418702771,394.4951099763611
176.27023150000002,0.7583652857409456,0.3269142192405059,28.518274557752235,24.422079462197456,0.3559080552597703,432.72894150968074
176.2995975,0.7583274990631018,0.32686219581858494,28.511532625741527,25.125063410688522,0.34354362825081575,445.18628029593526
176.328921,0.7582883623082772,0.32681024864000696,28.504801614153077,28.11489814964709,0.35512009924269333,498.1640928977403
176.3579545,0.7582506643475876,0.32675881612243846,28.498138312670097,29.37693196585296,0.34816317917993406,520.5274439437505
176.3874725,0.7582122644384764,0.3267065262392963,28.491364979437446,30.748824006443396,0.34267151216524894,544.8375292022322
176.417204,0.7581732734021159,0.3266538590701284,28.48454383812811,32.69669153835219,0.3421877328583765,579.3534976234937
176.44663450000002,0.7581342901411948,0.32660172599173526,28.477792919909433,35.46149620751926,0.34817287466375546,628.3450299355643
176.475859,0.7580960651786421,0.3265499586807688,28.47109040058881,37.24972446176077,0.34568113793706473,660.0327568469688
176.5050185,0.7580575990696632,0.3264983073450549,28.464403923935297,39.770105442161416,0.34881054335618117,704.693817204458
176.5343345,0.7580195217765632,0.3264463796195389,28.457682701239957,40.89013709706806,0.34147086108436725,724.5420338371247
176.563517,0.7579806214788481,0.32639468916761544,28.45099321903434,44.426104737357576,0.3513398827033153,787.1990292625935
176.59279850000001,0.7579428718912586,0.3263428241471253,28.44428217695362,44.690038149870745,0.3386498000333247,791.8781102938236
176.62212599999998,0.757903687936224,0.32629087842287396,28.43756172796256,48.52468147129267,0.3496768672991102,859.8280458139485
176.651385,0.7578657945360614,0.32623905478216014,28.4308581060789,49.05383114090004,0.33965085137295037,869.2068559095837
176.680743,0.757826766902767,0.32618705653196767,28.42413293405301,52.384986632050165,0.34693249188617026,928.2358788349081
176.709845,0.7577885900690567,0.3261355124172874,28.41746752178291,54.1990618274064,0.34511937872860776,960.3832425503098
176.739115,0.7577502122581492,0.3260836714482945,28.410764750309056,55.87921675561452,0.3427784765546069,990.1577997450024
176.7687365,0.7577115701075774,0.3260312086235638,28.403982625844804,56.85225851062381,0.3368582689756686,1007.4027655752885
176.79799500000001,0.7576722434068779,0.32597938938051557,28.397284736748105,61.601402081106414,0.35099667045196054,1091.5592428883238
176.826647,0.7576345334448586,0.32592864492811147,28.390726767550753,63.59975259639987,0.35061407130434646,1126.9727407010228
176.85563100000002,0.7575967805858709,0.32587731309934703,28.384093893163072,64.08508718915733,0.34298552585429753,1135.5761174881795
176.885073,0.7575581730935168,0.3258251707511993,28.377357321111916,65.37766478647535,0.33972711353591006,1158.4838412492404
176.914431,0.7575191899602672,0.3257731777703542,28.370641084180917,68.38394262090155,0.3447395490930924,1211.7583321868804
176.94336900000002,0.7574807801492629,0.32572192917988546,28.364022018129887,71.3146738062873,0.34936883572232486,1263.6944033408693
176.972563,0.7574428808722112,0.3256702277760022,28.357345487944283,70.78790142557526,0.3387002140006413,1254.3637483133857
177.001597,0.7574037722230015,0.3256188102637932,28.350706633786512,75.87426247730006,0.3531304548926075,1344.4982058744122
177.030421,0.7573662719722623,0.32556776516336133,28.344116865467498,75.31645336315353,0.34340793779957957,1334.6177105879137
177.059584,0.7573276938501509,0.3255161202242102,28.337450674862016,77.22258113625666,0.3448814874264093,1368.3986268803278
177.0883735,0.7572892754987121,0.3254651371995127,28.330870923640646,80.4128660201982,0.3522386986799206,1424.9352626760774
177.117312,0.7572516603424956,0.32541389077718846,28.324258181203952,78.96858204282466,0.3413686145193837,1399.3463394480007
177.146685,0.757212824854137,0.32536187536988687,28.31754723773617,80.17571718348958,0.3418315100228901,1420.7413880150527
177.17596650000002,0.7571740380770821,0.32531002243964763,28.310858286716144,81.52399098929699,0.3434223940650594,1444.6375847383124
177.20504599999998,0.7571354203643081,0.3252585276408859,28.304216551571596,83.14514401913354,0.3465130569128251,1473.3694368811546
177.2339655,0.7570971437970817,0.3252073165742266,28.297612417166924,83.99270120737869,0.34716687441617516,1488.3929274919155
177.2630565,0.7570589255714034,0.3251558021981355,28.290970179484823,83.3186322212741,0.34248393890616535,1476.452471566242
177.292315,0.7570201715441558,0.32510399158555636,28.284290767978046,83.8656480409827,0.3431803204827673,1486.150335778036
177.321547,0.7569814861749374,0.325052228255048,28.277618476116313,84.02413873121708,0.34308266554838435,1488.9633314743471
177.350695,0.7569427781516221,0.325000614007222,28.270966419940667,84.56053310637417,0.34515065100711434,1498.4730543734704
177.37983150000002,0.756904291173012,0.3249490204430556,28.264318046097934,83.90772881351732,0.3433517816219027,1486.9093194316865
177.4089605,0.7568655895083882,0.32489744046233787,28.25767243840558,84.06835274942505,0.34531068548510147,1489.760129563266
177.43788,0.7568270984127519,0.32484623173518895,28.251075667809882,84.33731464047219,0.3483304146780536,1494.5307677228413
177.4670665,0.7567889281204053,0.32479455049113926,28.24441904152422,81.3473036904739,0.33916917807116936,1441.5494618191726
177.49647,0.7567497049248852,0.32474248525600813,28.237713986899664,81.65850234394314,0.343228736771448,1447.068534048424
177.525408,0.7567109349285942,0.324691244523175,28.231116122632674,82.67826087324146,0.35015248684632894,1465.1439814927976
177.5541935,0.7566729224547499,0.3246402740373282,28.2245540492113,81.32972168886826,0.34685473338621553,1441.2507132799726
177.5833115,0.756634533191538,0.3245887149943846,28.217917211058257,80.07089800728097,0.34229417915434973,1418.9472132575527
177.61260099999998,0.7565956140692773,0.32453685246430164,28.211242329271368,80.52177297665722,0.34281955548695076,1426.941496672212
177.6421835,0.7565567450633531,0.32448447129577473,28.204501737325195,79.30552131143155,0.3356207349101441,1405.3923166360878
177.67153,0.7565170226555566,0.3244325081622861,28.19781597239428,83.28960445038857,0.34834664082140226,1475.9996395012806
177.700789,0.7564787561507175,0.3243807000988912,28.191151183173332,81.27829088981338,0.3375147659157827,1440.3608614998873
177.7299635,0.7564392411770212,0.3243290417755096,28.18450667472378,85.29787598714347,0.3503640819385333,1511.5978294275274
177.7591385,0.7564011751674542,0.3242773826681389,28.17786308138957,82.51348991175206,0.3374885813124368,1462.2589638992347
177.78844700000002,0.7563616338350602,0.3242254872623253,28.17119012172329,85.42176622379672,0.3471224191174654,1513.802376587906
177.8173965,0.7563231883439167,0.32417422759084713,28.164599913874603,85.23986966113898,0.3457596876151039,1510.5833601090856
177.8463845,0.7562845776630432,0.3241228997994648,28.15800194979827,85.29503306002943,0.3462158693114205,1511.5654149708962
177.87528450000002,0.7562460053813908,0.3240717278597927,28.151425017277095,85.38430145230603,0.34785428907414456,1513.1518592437785
177.90448600000002,0.7562076047420432,0.32402002208537367,28.144780484418373,82.45854555424157,0.33924082878164735,1461.306954239414
177.93406149999998,0.7561682045842595,0.32396765408727946,28.138051887464975,81.32944736299348,0.33919766146072877,1441.30174828035
177.96351099999998,0.7561287823526853,0.3239155091757027,28.13135298989932,80.36706456914602,0.3421909573475862,1424.250903990637
177.992617,0.7560896927096551,0.3238639724517323,28.12473323959529,79.15236733034416,0.3472845867976245,1402.7284225462195
178.022089,0.7560511613889759,0.32381178761765383,28.118031269515548,72.70445006013288,0.33411162060679067,1288.4631103407073
178.05179800000002,0.7560110700900902,0.3237591830694787,28.11127644346627,70.37723465427177,0.34196997159996,1247.2241467515175
178.0809615,0.7559718811700983,0.32370754433305204,28.104646657095884,66.79380974164575,0.3468863871513117,1183.7222761850721
178.1100335,0.7559332203227246,0.3236560675133988,28.098038666481422,61.74011596694027,0.34455837783727294,1094.1637825098096
178.139441,0.7558942506472398,0.3236039965178304,28.091355425806512,56.568818336746446,0.3396233189137491,1002.5205994514671
178.16907700000002,0.7558546685659402,0.3235515207875454,28.08462127892665,52.69863938457573,0.3398023405233563,933.9355663623791
178.19842749999998,0.7558150628445226,0.3234995504329656,28.077953015982366,50.21495633750513,0.34684233515702867,889.9219175250744
178.227938,0.7557762182004232,0.32344729659986793,28.071249413061395,45.30738357846648,0.3370111760168119,802.95111432486
178.2575435,0.7557361588227361,0.3233948743634493,28.06452524625338,43.44238891241162,0.34536484698225844,769.9014434528916
178.2870465,0.7556970346177206,0.32334263341839714,28.057825370048803,39.81438679321516,0.3401217990756941,705.6068268138122
178.316607,0.7556572232722967,0.32329029043610596,28.051113445090053,37.77138176913573,0.3450150250018948,669.4018773821222
178.3461555,0.7556179195005636,0.32323796846304265,28.044405251757624,34.83816061122811,0.34152994694005445,617.4198394669273
178.3760855,0.7555781141371007,0.3231849707007902,28.037611472931488,32.113094815440505,0.33783555295530493,569.126557839711
178.40576800000002,0.7555377624732185,0.32313241091538614,28.030874889056456,31.15107598401251,0.34828679325473494,552.0787851330388
178.43524050000002,0.7554985938499366,0.3230802226935588,28.02418696352204,28.670173067673588,0.34384299976950616,508.11220616012474
178.464835,0.7554587784427662,0.323027818132812,28.017472351708353,27.147322388479875,0.34701833800694354,481.12466967649004
178.4943455,0.7554192568774855,0.32297556199069344,28.010777791884255,25.427294398740937,0.34726510703491215,450.64243541883053
178.523829,0.7553796404656058,0.32292335331847416,28.00409034540417,24.00109027703231,0.3496052230413768,425.3674088239391
178.553797,0.755340165251181,0.3228702863388252,27.997294014519273,21.58508677110299,0.3392134930448536,382.55014312234135
178.5836015,0.755299222094744,0.32281750849907437,27.990535770504938,21.511266534541882,0.35541686690882107,381.24299517384935
178.61260850000002,0.7552601593824482,0.3227661424888084,27.98395932384,20.405344571480402,0.35842061270548264,361.64387196162363
178.642092,0.7552213310248397,0.32271393228026185,27.977275815796727,18.30588355115964,0.3473974903901955,324.4361060198258
178.6719155,0.7551809624714944,0.3226611195573582,27.97051622722816,17.58474783015093,0.35353694480499953,311.6563298717386
178.7014185,0.7551411944523816,0.3226088739441162,27.96383026107647,16.715125661390765,0.3572938464349831,296.244817308989
178.731482,0.7551016605384202,0.32255563529192877,27.95701827477836,14.902131166055701,0.3450765212210531,264.11363962189637
178.76137,0.7550603584510482,0.3225027069369455,27.95024705284332,15.156636143125104,0.36431939010323183,268.62510515557676
178.79068949999998,0.755021269899285,0.32245078484009604,27.94360559128705,13.99824881766715,0.359928348226472,248.09544026821317
178.82007049999999,0.7549814700468803,0.3223987533262333,27.93695115501816,13.49328588916176,0.36615736640694374,239.14653818655228
178.8497605,0.7549421899656201,0.32234617406513777,27.930227704102446,12.191935887821858,0.3579385848607487,216.08288178702767
178.879412,0.7549015313679744,0.3222936624347396,27.923513942559378,12.171758167856101,0.37041916799049873,215.7259165391878
178.90874300000002,0.7548623285532229,0.3222417178390643,27.916873701573863,11.308361282478508,0.3681040351599491,200.42411903302704
178.93859700000002,0.7548225063672015,0.32218884643408957,27.910116028802605,10.44286926406699,0.36511208759092195,185.08510649186078
178.9682335,0.7547818673661718,0.3221363596185068,27.903408554383745,10.463011973976378,0.3758377076775792,185.44266871424205
178.99760300000003,0.7547426047047541,0.32208434505571937,27.896762455468217,9.723714752591464,0.3737925147708651,172.3401469206985
179.0273045,0.7547026585873271,0.32203174187372574,27.890042183603267,9.194179485161962,0.3747158498253661,162.95531995058892
179.0571085,0.7546624736168562,0.3219789565000313,27.883299684189463,8.759448628287494,0.3761520824540344,155.25073226068787
179.0867255,0.7546222236751289,0.32192650164906444,27.87660044375927,8.555879438672926,0.38246073245912116,151.64317085172183
179.1159615,0.7545825163314926,0.3218747209180167,27.869988314673762,8.341759432623904,0.3878661351871855,147.84858016346413
179.1452165,0.7545432683810276,0.3218229058513217,27.863372811819183,7.820628520306893,0.38614886650190944,138.61251766417482
179.17491,0.7545034830824953,0.3217703134176255,27.856659092096763,7.297232788694103,0.3850566591087624,129.33626408942072
179.2046685,0.7544630233654123,0.3217176051161086,27.84993162577133,7.1423324138757645,0.3905991968612321,126.59119217515601
179.234263,0.7544230351499935,0.3216651865386794,27.843242175489536,6.843012095892592,0.3914123564764195,121.28638474139967
179.2638,0.7543829913975343,0.321612869041297,27.83656665543266,6.63432603197357,0.39581025965582217,117.58796203579539
179.29344400000002,0.7543431315376133,0.32156036123408843,27.82986788772517,6.250092152455796,0.3957990431607294,110.77806847435565
179.322882,0.754302770868766,0.32150821751477954,27.82321659517832,6.315086898381662,0.4039740223810543,111.930386746114
179.35225100000002,0.7542634415854584,0.32145619520901686,27.816581808459734,5.862887433164399,0.4013182664617994,103.91578714580542
179.38217,0.7542232403842455,0.3214031978241869,27.80982370879236,5.503748922893931,0.39845749664246566,97.55059354079631
179.411814,0.7541823939879115,0.3213506867054896,27.803128657648916,5.684577588653608,0.4112360002507461,100.75597638522535
179.441286,0.7541429104000446,0.32129847940226997,27.796473369323124,5.279096556216191,0.4065345518940532,93.56933220175401
179.4708845,0.7541025023514637,0.32124604713081883,27.789790432901,5.270791854547989,0.41040605477170955,93.42241792440328
179.50075750000002,0.7540626486184241,0.3211931276814632,27.783046448372577,4.8060596037559105,0.4070567991339324,85.18550742044302
179.530592,0.7540214679152503,0.3211402754997664,27.77631208577513,5.018693379905733,0.4157998768925063,88.95462811436259
179.5600455,0.7539816910055235,0.32108809733154964,27.76966463372578,4.804950606001046,0.41525303811058306,85.16636654079954
179.58981949999998,0.7539415162861048,0.32103535042477965,27.762945763366197,4.575064658363584,0.4147620210233032,81.0919508655016
179.6196235,0.7539008414754111,0.3209825493883741,27.756221043472607,4.556396616654393,0.41858713395653746,80.76131002021569
179.6492025,0.7538605573290103,0.32093014597546715,27.74954799873365,4.498395420237085,0.4207765577649839,79.73349012234857
179.67863699999998,0.7538204658143576,0.32087799757077,27.74290844903731,4.44577698558279,0.424186004621866,78.80107191458316
179.708121,0.7537805467313539,0.32082576045743233,27.736258627131505,4.283478716976862,0.42335364818200316,75.92457560815684
