T(K),X,m,cp(J/gK),cpm(J/molK)
175.112349,0.3289664289983235,28.78506295340065,2.311603283318031,40.953894286383075
175.14059300000002,0.32891634313048856,28.77853233746306,2.8649889704392275,50.758188141322435
175.168799,0.32886632619550654,28.77201168230159,2.425099483915368,42.96491617373054
175.19713050000001,0.32881608825380826,28.765463193022473,2.8958914582698987,51.30597531425021
175.2251875,0.3287663385643096,28.758979313149855,2.701949983963905,47.87008730486186
175.2533975,0.3287163190727796,28.752461238852426,2.9239302830377656,51.80303208328151
175.2816645,0.32866619999816576,28.745931162010027,2.8073950065687283,49.73852995637945
175.31012600000003,0.3286157375478889,28.739357331310856,2.9619812659604947,52.47748263006369
175.3384005,0.3285656081082227,28.732827860848452,3.090300665257049,54.75107834235751
175.36660999999998,0.3285155953426007,28.72631455894836,3.1919395444123575,56.55198476578708
175.3949875,0.32846528615540144,28.719763632042532,3.1958469298608487,56.62137667894243
175.423575,0.3284146060984558,28.713165405304768,3.2911422231352394,58.309910418936106
175.451697,0.3283647526658231,28.70667577143137,3.7488927504390865,66.42017091190935
175.479895,0.32831476586529346,28.700169743699046,3.5264479144145846,62.47923427670086
175.50840599999998,0.328264225576896,28.693592661226436,3.8658777291064275,68.49322326906797
175.53691700000002,0.32821368664879413,28.687016745359696,3.8642135648960525,68.46393819061575
175.565203,0.3281635478859446,28.680493874964846,4.422254949162584,78.35122461382066
175.593363,0.32811363376348385,28.674001196457077,4.3702627657618685,77.43027690820514
175.62186250000002,0.32806311917226283,28.66743139286367,4.645038456675406,82.29886417135369
175.6501295,0.32801301795766175,28.660916327656558,5.075620898586449,89.92800506895593
175.678671,0.32796243148500465,28.65433914599939,5.026434528041976,89.0567986574879
175.7070675,0.3279121032610884,28.64779652400742,5.88344532134752,104.24135105360942
175.735144,0.3278623433983861,28.641328751701238,6.031897377433523,106.87189258822517
175.7634075,0.32781225331810154,28.634819024940146,6.589752925706858,116.75619746354784
175.791556,0.32776236822921073,28.628336903106568,7.095913403013961,125.72463024048766
175.819613,0.3277126464557928,28.621876959914697,7.750107706812658,137.31596828153974
175.84767,0.3276629258227397,28.615418120320847,8.290348621586698,146.88834732083816
175.8760475,0.32761263836602234,28.608886620470816,8.76373960772684,155.2763362970954
175.904425,0.3275623520432598,28.602356244770547,9.776776147184291,173.22586605709068
175.9327185,0.3275122156852634,28.595846316346424,10.478944635100301,185.66749211726824
175.960852,0.3274623639343519,28.58937430493175,11.813927282133472,209.32151404284076
175.9887755,0.32741288535200785,28.582951688842645,12.740114795912094,225.73253278775445
176.017191,0.3273625360409295,28.576417016924815,13.317704016725848,235.9670878735173
176.045866,0.327311727992789,28.569823798651075,14.686327725573502,260.21753709924263
176.073744,0.3272623331305289,28.56341492028734,16.973139742009494,300.7369360310155
176.1015535,0.32721306061910715,28.557022854248856,17.34697162952968,307.36151356039187
176.1299575,0.3271627357758173,28.550495236811297,18.736817674978898,331.98839984262014
176.157957,0.3271131285751057,28.544061660143928,20.96459552792203,371.4623557953932
176.18605250000002,0.32706335224066946,28.537607101850423,21.55194553157095,381.8704457756278
176.21441900000002,0.3270130967306012,28.53109137689777,23.629317615337545,418.6797980192141
176.24293,0.32696258616330287,28.524543563752335,24.493155222051005,433.9871052887729
176.2711965,0.3269125096766224,28.51805299168438,27.638313646383118,489.7166683496498
176.29900550000002,0.3268632445684043,28.511668527308196,29.05682288025963,514.8523568478638
176.32737550000002,0.3268129865013238,28.505156344277886,29.933000715149166,530.3787235965618
176.355349,0.32676343169934013,28.498736238713064,33.98160246389744,602.1170619227225
176.38329950000002,0.32671391847586906,28.492322463748796,33.781713314538855,598.5769525556155
176.4114595,0.32666403495896834,28.485861676101685,37.434242224266725,663.2978878463207
176.4395355,0.3266143010537789,28.479421218698214,38.04979230004488,674.2067622992118
176.467581,0.32656462196973474,28.472988810237915,41.79899712436435,740.6412899855496
176.49541699999997,0.3265153147574216,28.466605489769698,42.95772361125794,761.1750636318382
176.52363450000001,0.3264653325424019,28.46013573721333,44.81289238002848,794.0493968884211
176.551512,0.3264159533182133,28.453744979299202,48.618234844476675,861.4795415939959
176.57912249999998,0.3263670477413689,28.447416445255588,50.228863478979626,890.0212123279907
176.6073975,0.326316965876367,28.44093664810607,50.41450605052552,893.3132520097815
176.635558,0.3262670875261144,28.43448414001569,55.18960000179481,977.9277180669005
176.6632255,0.32621808305828354,28.428145612008205,56.87953939986387,1007.8753126416808
176.6913015,0.32616835572448616,28.421714526676475,57.824793162879935,1024.627646838802
176.719317,0.32611873619996756,28.415298330038375,61.62426690741678,1091.955626731778
176.7473625,0.3260690641796297,28.408876291586747,62.00629297416984,1098.7281122012291
176.775328,0.32601953446998116,28.4024735948585,66.46105470932208,1177.668172613588
176.80332800000002,0.32596994426323894,28.3960640203844,66.08819774369437,1171.0646177906535
176.83102250000002,0.3259208957024806,28.389725381769384,72.53842518714933,1285.3645027192117
176.858187,0.3258727863497977,28.383509014853676,73.16575699262573,1296.4842772455893
176.88609150000002,0.32582336697902853,28.377124299982086,72.51755658494343,1285.0019425300236
176.914366,0.32577329288462137,28.370655953018815,75.10264534612348,1330.8132315192288
176.94197300000002,0.3257244014538179,28.364341304193022,80.47835138983528,1426.07435910414
176.969515,0.32567562563617647,28.35804249999834,79.31674394286794,1405.4946574862754
176.9974385,0.32562617469126665,28.351657441479283,81.84628364386204,1450.3222989390924
177.02526699999999,0.32557689246647664,28.345295099500934,83.46817577472288,1479.0665525948464
177.05278249999998,0.3255281649986461,28.339005290847478,87.34710004456926,1547.805926571077
177.08052650000002,0.325479033323383,28.33266422663368,85.17803462173087,1509.373983166871
177.10862200000003,0.3254292796197876,28.32624382310035,88.00190506867749,1559.41807820689
177.13620600000002,0.3253804321371448,28.31994128300228,91.44853211840442,1620.4978264569395
177.163977,0.32533125390564777,28.313596990001663,89.27045402419671,1581.9060578449717
177.1918245,0.3252819405950269,28.307236199614838,93.23777903219619,1652.2132488798004
177.2193435,0.3252332093734233,28.3009514046359,93.6168516806986,1658.935239558873
177.247248,0.3251837958611065,28.29457954246654,92.28451123362257,1635.3301912131706
177.2752825,0.32513415249460514,28.288178980260827,94.15974879774556,1668.5651657787678
177.3027865,0.3250854488623187,28.281900493820682,97.31474501254364,1724.4783649542426
177.330111,0.3250370633924406,28.275663919578093,96.27951836843323,1706.1382591065833
177.357798,0.32498803631510587,28.269345558231542,95.06610886471833,1684.6405834856507
177.3858855,0.3249383003389346,28.262936775350973,93.45443685007898,1656.0853327139605
177.4136375,0.32488915872313867,28.25660550683942,97.27944466504086,1723.872331905516
177.4413895,0.3248400173643877,28.250275193082164,92.90939027409978,1646.4360137930064
177.46937,0.32479047163877806,28.243893722249737,94.78025024806698,1679.5940943546661
177.4971145,0.3247413440325747,28.237567029673592,93.60265478611602,1658.7307073906732
177.5247635,0.3246923857417307,28.23126305742672,94.30449229806842,1671.1726730452758
177.55258,0.3246431310564625,28.22492184310966,91.18710227473674,1615.9339023435325
177.580645,0.3245934365396972,28.218524940705915,91.39076676353301,1619.547697598407
177.6086185,0.32454390421397217,28.212149852924725,91.1526867764535,1615.333264527093
177.6363435,0.32449481205946307,28.205832340143,93.24050329246448,1652.3365161468744
177.66382049999999,0.3244461591724249,28.199572261185125,93.77100077556486,1661.742246382985
177.691527,0.3243971000402287,28.19326082434884,93.04273242451008,1648.8410624566582
177.7193245,0.3243478798887305,28.186929593511458,94.85842191906654,1681.0222677902336
177.7473435,0.3242982676328945,28.180548859375588,93.28176592657027,1653.0864745184645
177.77556099999998,0.3242483039852247,28.17412387891155,95.19017891286609,1686.9111452709478
177.8032935,0.32419919917707407,28.16781026496048,98.40864569090428,1743.952087513738
177.831236,0.32414972258456337,28.161449777007405,94.99532682597459,1683.4676462338277
177.8591595,0.32410027967413024,28.155094549309126,99.56089207989612,1764.3817234295525
177.8868545,0.3240512413832205,28.148792248398987,97.22575865211397,1723.004214423513
177.91459500000002,0.3240021225377377,28.142480511398034,99.33040942199044,1760.3071565840628
177.94244600000002,0.32395280803076953,28.136144554692116,95.98503839362662,1701.0262156206854
177.97056800000001,0.32390301365738045,28.129747882291706,96.18319204820845,1704.5427458785628
177.998358,0.3238538071083286,28.12342764837539,96.44307364424994,1709.153173962794
178.0264725,0.32380402593275537,28.117034543756137,90.96066866077138,1611.9992436957175
178.054442,0.32375450143962164,28.11067533733558,93.27952704725324,1653.0986263692791
178.0823005,0.32370517341275806,28.10434228404523,86.32794954697061,1529.9072069785307
178.110228,0.32365572311837343,28.097994460472908,85.58113681525698,1516.676487598314
178.13802950000002,0.3236064958223235,28.091676184591662,78.52174850332263,1391.5733322780184
178.166075,0.32355683636123633,28.085303372499837,74.27846609835201,1316.3770612198691
178.19406750000002,0.3235072706096671,28.07894351915019,69.15177338995356,1225.5243431749666
178.221907,0.3234579756225905,28.072619332251175,65.81293360197898,1166.3559371987817
178.25014349999998,0.3234079775064589,28.066205880371285,58.72559168014036,1040.755003968731
178.278666,0.3233574727866715,28.05972840673243,56.40652042589435,999.658541607298
178.306868,0.32330753537652895,28.053324643946684,52.79815534526122,935.7123704356275
178.335154,0.3232574490134825,28.046902729379898,49.2184530667694,872.273814892517
178.36307,0.32320801758939743,28.040565720961126,47.84250904812644,847.8910696394396
178.39128,0.3231580653322134,28.034162883089227,42.33383419837593,750.2654867237225
178.419852,0.3231074718087115,28.027678811534358,40.963150379394634,725.9755273136797
178.4481685,0.32305733043293766,28.02125364354484,38.13382907051154,675.8344132216175
178.4765575,0.3230070603871768,28.014812943074276,35.98936053276345,637.8304892523602
178.504607,0.3229573912129623,28.008450166844987,34.70126965278217,615.0037359817953
178.53276699999998,0.32290752605334,28.002063223308472,31.57691238588271,559.6329792469703
178.56115599999998,0.3228572550502128,27.99562524978613,30.18745008662445,535.0092936793528
178.58951050000002,0.3228070447886886,27.989196009264678,28.117870320706405,498.331771805267
178.61789149999998,0.3227567872347947,27.982761667792715,26.776029537817507,474.551762004928
178.64604400000002,0.32270693393588445,27.976380025426838,25.52122133974954,452.31408743644397
178.67409,0.32265726884272894,27.97002340906487,24.086012209409734,426.8790150104451
178.70237600000002,0.3226071783403018,27.963613288851363,22.308489975943036,395.3769368712416
178.730673,0.32255706793490924,27.9572015701407,21.522066108669716,381.44012284570874
178.7588445,0.3225071793385633,27.95081917449696,20.207704668956637,358.14644758367393
178.78729099999998,0.32245680329181037,27.944375371593548,18.830133105025613,333.7323548731206
178.8157565,0.322406393124141,27.937928163255755,18.12669739911098,321.26607692278674
178.84400399999998,0.3223563685340014,27.93153121659899,17.290057337772893,306.4388834021231
178.8723205,0.3223062212509326,27.925119528326157,16.220964078462963,287.4917297140092
178.9006945,0.3222559716226687,27.918695706216443,15.512694126092523,274.93952673009954
178.928866,0.322206080091749,27.912318604955942,14.940188766923571,264.793478844543
178.9570375,0.3221561880230688,27.90594237372564,14.022407835893887,248.52783928558287
178.985331,0.32210607933491325,27.899539403103727,13.382275613054583,237.18306368825102
179.01360549999998,0.32205600372496895,27.89314160485504,12.771616170033449,226.3605895000564
179.04210899999998,0.3220055219509741,27.88669287055725,11.887306343052709,210.687940099694
179.070616,0.3219550333675072,27.8802442268276,11.633277647121622,206.18619286291616
179.098467,0.32190570601755514,27.873944828817095,11.642283649530418,206.3464004880587
179.12660799999998,0.3218558644228867,27.867580689477563,10.304794843884318,182.64143854687845
179.1551495,0.3218053128349037,27.86112684850261,10.214193520028857,181.03615483535253
179.1833595,0.3217553477262649,27.854748827785027,9.801320115821657,173.71889555273006
179.2117145,0.3217051251194109,27.84833888447333,9.246242465998966,163.88115691452842
179.239924,0.321655159535677,27.84196268705826,9.20265068727267,163.109002506596
179.268076,0.32160529509946617,27.835600333657187,8.596150199010742,152.35974532144087
179.2964385,0.3215550570934244,27.829191261136025,8.334389509541838,147.7206786042155
179.3248735,0.3215046899289354,27.82276666409211,7.91869989824871,140.35330576608928
179.35310199999998,0.3214546877916786,27.81638957162229,7.954351992114918,140.98562009759237
179.3811895,0.32140493465849757,27.810045169016437,7.525049087744304,133.37689304443634
179.409361,0.32135503196077464,27.80368262873816,7.3739013562254625,130.69826793899068
179.43748699999998,0.3213052090774587,27.79733119811013,7.105382973094818,125.93929184989445
179.465918,0.32125484510122393,27.79091173654499,6.666514726288573,118.16091892158795
179.494574,0.3212040817099648,27.78444232895172,6.501233815857711,115.2317277352476
179.5230775,0.3211535876173525,27.778008201284763,6.435382213395744,114.06486687180538
179.551554,0.32110314049260674,27.77158101418494,6.174795938503093,109.44638588003725
179.5797635,0.32105316550287927,27.76521492091691,6.322417352141803,112.0632535303312
179.60740099999998,0.32100420300007754,27.758978712707187,6.3432304963623025,112.43247861523034
179.635489,0.32095444151812536,27.752641662356666,5.648546883337389,100.11963917379751
179.664183,0.3209036055043011,27.746168730983765,5.553449417172878,98.43433943906915
179.692419,0.3208535799831167,27.739799945330375,5.743710648576609,101.80699446793804
179.72071649999998,0.3208034445650053,27.733418109885328,5.2415882299900725,92.90716731280261
179.7493155,0.3207527740027704,27.72696911212534,5.249538947964926,93.04836560890635
179.777533,0.3207027783979072,27.720606961216063,5.292270913277084,93.80606239479305
179.805838,0.32065262677947015,27.714225897738338,4.943733422309223,87.6284517981495
179.8341925,0.32060238645526057,27.707834492314877,5.033279574135515,89.2159297973283
179.8622995,0.3205525836650437,27.7014996813843,4.951170805748351,87.76078671711616
179.890738,0.3205021924597148,27.695090970403108,4.629299447962186,82.05577177797412
179.91923350000002,0.3204516991998592,27.688670233565386,4.748211149644732,84.16376363442586
179.9476225,0.32040139359114694,27.682274307290832,4.571352158142115,81.02910888471833
179.9759735,0.32035115424436417,27.675887750597184,4.664117339022482,82.67364953768477
180.00428649999998,0.32030098114930977,27.669510558242475,4.483089040593195,79.46506856930057
180.0324005,0.32025115961126704,27.66317898167436,4.694108243140461,83.20573188290066
180.060717,0.3202009781072233,27.656802596928134,4.235113962127435,75.0700149920245
180.08916349999998,0.32015056508495726,27.650397741827447,4.487570323517949,79.54519134125854
180.117781,0.32009984785117673,27.643955195799144,4.037356735300435,71.56506300570923
180.146231,0.3200494262960198,27.637551162157607,4.534927649078969,80.38510032927721
180.1740405,0.32000013874651845,27.63129207630371,4.394160104266626,77.89010801308655
180.202334,0.31994999221553055,27.624924838473305,4.116644021327719,72.97111774479494
180.2311235,0.3198989653582779,27.618446787119055,3.9896054837132833,70.71945650942345
180.2594095,0.3198488296865134,27.612082821800254,4.408268531898668,78.14087306801561
180.2876685,0.3197987406451669,27.605725712338433,3.934252974118019,69.73868485726157
180.31615299999999,0.31974825065083334,27.59931866291601,4.190187805549737,74.27560944149356
180.344485,0.31969802970538796,27.592946698536434,3.986191989860631,70.6597675949611
180.3729235,0.31964761869724523,27.586551565317418,4.044070926380367,71.6859456057154
180.4013735,0.31959718600394904,27.580154629364667,3.9237155975121776,69.5527070906157
180.4293085,0.31954766496075315,27.573874250750805,4.36880305520382,77.44265329025353
180.457316,0.31949801410873224,27.56757832712776,3.8402567924956306,68.07368579836384
180.4860865,0.31944700927760905,27.56111167019895,3.802513372347779,67.40483139055053
180.514479,0.3193966732097959,27.554730752801163,4.057114362942994,71.91819627247986
180.543127,0.3193458827894186,27.54829319539315,3.6045339527390587,63.89574363574323
180.57196249999998,0.31929475852735234,27.541814294556325,3.910750660082066,69.3240960569667
180.6001535,0.3192447755475284,27.535480967480687,4.025387193949878,71.35641127619324
180.6282295,0.3191949950819678,27.52917422523085,3.9655400541584114,70.2957269358963
180.6565155,0.3191448408646079,27.52282106459437,3.8475997942142453,68.20523881355176
180.684954,0.31909441480780953,27.5164344129202,3.8369366781381977,68.01641467673369
180.7134575,0.31904387203215845,27.51003392753319,3.7773708186833383,66.9607006985689
180.74166,0.3189938615374445,27.50370178265761,4.007452944833574,71.0395255396918
180.76995349999999,0.31894368820596575,27.497349954485376,3.690276263393989,65.4171706168348
180.79835,0.3188933307284718,27.49097575481762,3.9114485909307257,69.33807235307198
180.82626599999998,0.31884382388160243,27.484710145868327,3.9944246998624884,70.80918814749411
180.854468,0.3187938083388562,27.478381080933037,3.6952386571512794,65.50570440693409
180.88284900000002,0.31874347381070545,27.472012589184896,3.8612390210127643,68.44860082446296
180.91155450000002,0.318692562193068,27.465572039401852,3.4679885448113374,61.477587603788926
180.9398215,0.3186424267256153,27.45923061671468,4.153999118489324,73.63881956669042
180.9679625,0.3185925131786395,27.452918190778252,3.5374555842809197,62.7094025573989
180.9964775,0.3185419346697287,27.446522612246675,3.8574217445211345,68.38172592139395
181.02466800000002,0.31849193014563587,27.440200546460986,3.7397846614209973,66.2965275116298
181.05296149999998,0.31844174130825487,27.43385611077828,3.7738008766065834,66.89973890395567
181.081114,0.3183918009697781,27.42754401555431,3.818283875811749,67.68850238932039
181.109362,0.31834168958753084,27.421211231286065,3.705486530894745,65.68908088557062
181.1376405,0.3182915224451744,27.414872332962137,3.79809612004948,67.33101378042312
181.165682,0.31824177410213533,27.408587273514158,3.85865676215186,68.40480293227138
181.19426149999998,0.31819106959224125,27.402182358549336,3.440439338684825,60.990981388173715
181.222872,0.3181403083473981,27.395771231078907,3.8322165625786426,67.9364784222635
181.251036,0.3180903375798388,27.389460872919727,3.727260508062948,66.07603674564002
181.2789135,0.3180408734577327,27.383215405221648,4.028345503862226,71.4138074976926
181.307051,0.3179909462937216,27.37691239134934,3.538938248435585,62.737861451832465
181.33554700000002,0.31794038123848584,27.37052978795103,3.7693194333715603,66.82222547801743
181.36353150000002,0.31789072207387215,27.364262452133897,3.8952717623236532,69.05529701525768
181.3918975,0.31784038414816107,27.357910383172584,3.5124524635394123,62.268865090031944
181.420393,0.3177898145946767,27.351530029316844,3.777309435586525,66.96445280141326
181.448614,0.3177397303719821,27.345211841841458,3.6549901147036077,64.79615285365954
