T(K),Fc,X,m(mol/kg),cp(J/gK),cp_err(%),cpm(J/molK)
175.110701,0.3890492524554465,0.3289693514905851,28.78544404257904,2.202330205332227,0.7585779744220073,39.01793351016608
175.1403795,0.3889524050118251,0.328916721730122,28.778581698805272,2.1729297737993405,0.7506681971426417,38.497172940653975
175.1702715,0.3888537209886153,0.32886371509331735,28.771671302351294,2.2219502877759316,0.7507485990189504,39.36577565835537
175.19991950000002,0.3887554104262703,0.32881114283000124,28.764818612630183,2.304491573292216,0.7491044593453262,40.82826417980213
175.229449,0.3886582780954057,0.32875878235167844,28.75799459560175,2.333228367482223,0.747785941384827,41.33751364432971
175.25879500000002,0.3885606925021583,0.32870674886953755,28.751214249797787,2.439175303268641,0.7530373995527875,43.21469187121967
175.288275,0.3884647150435364,0.32865447940052306,28.744404211366287,2.392824968274277,0.7391271853575865,42.39363414737257
175.3177055,0.3883661892804197,0.32860229928726503,28.73760687246769,2.5524222521045914,0.7471957924949899,45.22135225830692
175.347086,0.3882704833807735,0.32855020938959384,28.73082233940882,2.5134014032905503,0.7341627689910407,44.530152323442614
175.3767265,0.3881722311242602,0.32849766009373,28.723979037836084,2.607140973842727,0.7347182526679317,46.19108447748033
175.4060845,0.388074752796013,0.3284456131711668,28.71720221416212,2.7177275018140943,0.7384691207220634,48.150506129252314
175.436087,0.3879783100332605,0.3283924252120599,28.710277905785496,2.5834363791618813,0.7087442599108401,45.77138462335261
175.466048,0.3878765158827795,0.32833931237397485,28.703364471419196,2.8843885622366554,0.734324022437073,51.103585811376014
175.4954785,0.3877802906217986,0.3282871414600142,28.696574707027644,2.882374362709565,0.7205276989858713,51.06805328257638
175.5251755,0.3876819447335873,0.32823449960372136,28.6897247209612,2.9878452308091403,0.7190281338081745,52.93687893584707
175.55473899999998,0.3875839007578934,0.3281820958490622,28.682906783930346,3.112074890100994,0.7190293762208513,55.138073381877426
175.584269,0.387486380606144,0.328129752906694,28.676097820525015,3.2066666917643483,0.7142285797672632,56.814171683927604
175.613852,0.3873885010891836,0.32807731743507257,28.669277884226897,3.3252746089827694,0.7117666502381533,58.915787639212894
175.643393,0.3872905730497171,0.32802495780253155,28.662468873855094,3.4717281515969627,0.7106762078184948,61.51077436084683
175.673262,0.3871929143172239,0.3279720182077787,28.655585522096253,3.4991648658973804,0.6939212785526229,61.99707703400631
175.7028105,0.3870927559566227,0.327919648029139,28.648777274353787,3.8921780479171266,0.7200611528791484,68.9605663958078
175.7323745,0.3869971631291359,0.32786725171841613,28.641966691121215,3.8310747190394823,0.6877058053051818,67.87815911874073
175.762175,0.3868968431433948,0.32781443759533313,28.635102874247114,4.192194059901271,0.7040448516453335,74.27662028065943
175.791655,0.3867996258745909,0.327762192782358,28.62831410705249,4.352381247811564,0.6965912626592199,77.11502346561403
175.8211805,0.3867013719996501,0.3277098686131154,28.62151608572733,4.631800962253397,0.6981156005707251,82.06599959249772
175.850752,0.3866037956086743,0.32765746418893044,28.61470869810961,4.834066960586462,0.6902154207573993,85.64999648898988
175.88016349999998,0.3865051784257838,0.3276053445420884,28.6079393558174,5.260625526964854,0.7017364730740246,93.20804115788864
175.9096055,0.3864086063927388,0.3275531720641175,28.60116420272017,5.433761229190757,0.6849283883842961,96.27595835462888
175.93918100000002,0.3863097285031041,0.32750076422639174,28.594359544003446,5.892010575925007,0.6928103532191946,104.39558445094504
175.9686115,0.3862122126092563,0.3274486145123738,28.587589452861735,6.262356550125172,0.6884132137386433,110.95776727270365
175.998202,0.3861142393450202,0.3273961824562628,28.580783766353456,6.656530916032917,0.6827882759470197,117.942189273383
176.02770850000002,0.3860156022445402,0.3273439003931509,28.57399860538062,7.24600736964819,0.6894952481131608,128.38707731646716
176.0569215,0.3859181289839701,0.32729213949248226,28.567282119770034,7.855462633841231,0.6938783204204251,139.18601618452334
176.0863445,0.3858213849833238,0.32724000760757543,28.56051853995368,8.229448159908575,0.6783637438005813,145.8128695607526
176.11600349999998,0.3857224571798823,0.3271874586782627,28.55370191362631,8.889646394436452,0.6814171752862432,157.51102055542927
176.145445,0.385624085151457,0.3271352961850533,28.546936468642034,9.603720701383688,0.6866356977916404,170.16384365266222
176.17458549999998,0.3855265456112379,0.3270836680215634,28.540241358724593,10.362614812376352,0.6941418389297234,183.610880784765
176.203913,0.385430118926687,0.32703170957527783,28.53350445506539,10.684338819800665,0.677344537235042,189.31194249271624
176.23353400000002,0.3853312761616477,0.3269792321712011,28.526701319462433,11.329792592342262,0.6798881343740846,200.7491123984948
176.26269000000002,0.3852328365710428,0.3269275795627581,28.520006145774783,12.29415291954571,0.698133676953131,217.8369654802959
176.291987,0.3851370330069572,0.32687567812944784,28.513279754541312,12.4149428078264,0.6728825728994416,219.97786915776828
176.321646,0.3850375949238839,0.32682313636315685,28.50647143305252,13.22387682190083,0.6807859592100083,234.31191785062532
176.35074450000002,0.3849393201325052,0.32677158847156335,28.499792929820337,14.299441660414649,0.6983738247626603,253.3704453439127
176.3800645,0.3848435603796473,0.32671964911035123,28.493064742422295,14.36926618778405,0.6703769185887944,254.60842209695258
176.409697,0.3847437491213419,0.3266671570832811,28.4862660177077,15.413032977667887,0.6833310544663885,273.10370856410356
176.4388905,0.3846458460941451,0.32661544359961064,28.479569165792714,16.349313888166893,0.6900839723131131,289.6945446948691
176.4679245,0.3845489049791968,0.32656401350743847,28.472910032904633,17.14971608017374,0.6904441504101677,303.8778238720282
176.4971835,0.3844520083639335,0.3265121856986135,28.466200432799646,17.64925449394618,0.6793638633318535,312.73013808033744
176.526568,0.3843535062496612,0.3264601364195503,28.459463200491317,18.606824186172155,0.6843891419967633,329.6984676832814
176.555926,0.3842557125680696,0.3264081348969798,28.452733189515268,19.31815346816567,0.6804014817944847,342.30369635364184
176.5852495,0.3841573278464152,0.3263561952809756,28.44601222763948,20.32826141580711,0.6858232360194435,360.2031568966017
176.61411900000002,0.3840597055091193,0.3263050605791837,28.439396433645566,21.707781235580434,0.701740742765489,384.64845699518037
176.64335499999999,0.3839642975928506,0.3262532774715688,28.432697772486915,21.473294249511646,0.6689442472701134,380.4946288293004
176.673083,0.3838641648494599,0.3262006236866826,28.425887536274004,22.656211433478685,0.6783264284320812,401.4564712137864
176.7024485,0.3837654064097622,0.3261486126891398,28.419161482997982,23.78210336347658,0.6853413554205686,421.40796388093196
176.731898,0.3836676385865401,0.32609645362778295,28.412417324788564,24.252563447335156,0.6744315919164673,429.7455933569853
176.7608745,0.3835682573230949,0.3260451329938734,28.405782593972212,26.450627291376207,0.7081150928204891,468.69578072998115
176.789698,0.3834735979510041,0.3259940839926829,28.399183982195126,26.29288809661177,0.6813166039102232,465.9020693537773
176.8189375,0.3833751818324652,0.3259422988660648,28.392491239786814,27.45982215963174,0.6878408834296803,486.58124299940283
176.8476855,0.3832776772347881,0.3258913848384655,28.385912081239727,29.096522372603854,0.7047757893589803,515.5846788480058
176.8767765,0.3831824962896371,0.3258398639503238,28.379255515184624,28.573583198669304,0.671987614891603,506.31980331523744
176.9065005,0.3830826326479983,0.3257872226175865,28.372455236992483,29.591941231552134,0.6747078756853864,524.3665535749382
176.935553,0.3829831470636239,0.32573577109688645,28.365809686418135,31.84895732167855,0.7035817950434733,564.3623513511443
176.9642735,0.3828877274589474,0.3256849080923518,28.359241146219745,32.12757141331929,0.6900668513309186,569.3010525272762
176.993437,0.3827904098233796,0.32563326109227264,28.352572373291366,32.64887023816025,0.6823232820907471,578.5401985825403
177.0223375,0.3826919579000591,0.32558208037316416,28.345964815175957,34.5717771439939,0.702755348442265,612.6160475658348
177.0512565,0.3825963470508219,0.3255308673953015,28.33935409612568,34.34213272683948,0.6814283544436504,608.5485179875611
177.080576,0.3824977108376682,0.32547894566453534,28.332652913976023,35.29560224119814,0.6835275186097356,625.4460348720334
177.10957150000002,0.3823993498479707,0.32542759817867123,28.32602686020991,36.84900909821969,0.6967548249476296,652.9746881995738
177.138407,0.3823028308058696,0.3253765344852261,28.31943842828869,37.36028548378205,0.6910387716733066,662.0365972707746
177.167414,0.382205485492975,0.32532516752698754,28.31281187420164,38.02525469107094,0.6885140859356464,673.8220670570493
177.1967755,0.3821077537653969,0.32527317323381605,28.306105418782295,38.002387960287585,0.6745213258939393,673.4188788175481
177.225752,0.3820079630066056,0.3252218611186451,28.299487966984763,40.70510609413543,0.7072114938689505,721.3143563853724
177.254511,0.3819127619264679,0.32517093454022805,28.2929212308526,40.12081014195332,0.6845333463950249,710.9624345573264
177.28338050000002,0.3818143742146916,0.32511981265595297,28.2863303077366,41.92761831342607,0.7017137245590781,742.9822417902834
177.3121665,0.3817183705714496,0.3250688389836454,28.279759487053575,41.85036472409139,0.6884405115224655,741.6154421806872
177.341105,0.3816204849063941,0.32501759560399657,28.273154899758993,42.94593679666753,0.6942824973722058,761.0319342486798
177.370043,0.3815233944862813,0.3249663534306811,28.266551470648533,43.28324830915488,0.6884520233172196,767.0115956416355
177.3989735,0.3814254516678544,0.32491512484232044,28.25995079425664,44.38226267230048,0.6946182546301579,786.4892769420613
177.427809,0.3813283517231222,0.32486406476121216,28.253372826373226,44.95220375428172,0.69296460741005,796.5914351509381
177.4567095,0.3812309890819543,0.3248128898525856,28.2467810637487,45.51474697100297,0.6914953269299519,806.5625612959803
177.485808,0.3811333904752788,0.3247613645967513,28.240145182865245,45.615624508265604,0.6835797542141223,808.3526042649032
177.514601,0.3810346308951666,0.3247103805327025,28.233579998224887,47.816963072765525,0.7063985761703034,847.3649254035445
177.5434935,0.3809390340534931,0.3246592205037944,28.2269931511041,46.50407355833008,0.6789638593108741,824.1016269793996
177.572745,0.3808395412210029,0.32460742500120177,28.220325503386647,47.78823559795661,0.688936219643856,846.8608728289465
177.60146600000002,0.3807414593040713,0.3245565690404746,28.213779798067304,49.460264065592284,0.7042947857471427,876.4936536656844
177.630347,0.3806454891217952,0.3245054299408449,28.20719864360649,48.35846207419249,0.6814204011813536,856.9709622854369
177.659415,0.3805462646574238,0.32445395988047526,28.20057590348104,49.89850960679916,0.695144099627107,884.2651082306215
177.688277,0.3804489699034312,0.3244028547191762,28.194001113934174,50.12495327841746,0.6910996072281138,888.2805958294219
177.717379,0.3803510765770735,0.32435132472052497,28.187372675196293,50.08069590622516,0.6837374296190266,887.4989334624813
177.74652700000001,0.380252096869675,0.32429971337940416,28.180734786549483,50.96185882022945,0.68891620836252,903.117041927807
177.77518700000002,0.3801538303416791,0.32424896621222177,28.174209030522697,52.84563497880052,0.7073056727564475,936.5029905278521
177.803805,0.3800580923600575,0.3241982934854053,28.167693824949517,52.05174511902901,0.6909054394776057,922.436780448977
177.8327355,0.3799600490607711,0.32414706748514494,28.161108475709582,52.58238884895876,0.69202422793951,931.8433537539299
177.8614255,0.3798621340665264,0.3240962673691176,28.154578861719585,53.834558316400596,0.7025629925647581,954.0365777374594
177.890421,0.379765658961183,0.32404492634311804,28.147980718814228,52.285182240161696,0.6777048926282644,926.5818380103343
177.9194855,0.3796656114194708,0.32399346315112637,28.141367881430494,54.373583257251134,0.6991740075569799,963.5946945382032
177.9480615,0.3795686072329312,0.32394286491692087,28.134867169582698,54.88243650745754,0.7008847054899735,972.6152987989772
177.9768355,0.3794718101181519,0.3238919160700655,28.128322395186704,54.32970698579024,0.6896290981283922,962.822767804807
178.0055945,0.3793734015468689,0.32384099374406683,28.121782013133053,55.63532504315032,0.7016170867336416,985.9636264126425
178.034487,0.3792766451845057,0.3237898349800236,28.115212255279665,54.46914044659579,0.6833398884790348,965.2994677804692
178.063521,0.3791772679478118,0.3237384255955926,28.10861131431633,55.70970814812755,0.6947221510652105,987.2876749143556
178.092421,0.3790794889800403,0.3236872533917533,28.102041823826877,55.60257173426018,0.6896497198624143,985.3919102848408
178.1211035,0.3789809587695539,0.3236364662046446,28.095522744683674,57.218921667288775,0.7053719494539816,1014.039924241325
178.1497405,0.378884595901435,0.32358575946500195,28.089014968452762,56.41625027477838,0.6918108559355601,999.8178179740162
178.1789,0.3787863127263535,0.3235341274118332,28.082389438638486,55.78073246865004,0.6803144693749016,988.558012545205
178.20800250000002,0.3786863352350438,0.32348259613272007,28.07577784872226,57.30968079345237,0.6945492076421371,1015.6573777831135
178.2370855,0.3785883765121122,0.3234310992112642,28.069171673122444,56.51680377716598,0.6812152892330643,1001.6087746939296
178.265997,0.3784884673430073,0.3233799057775136,28.062605426520346,58.69662624588272,0.7029096886120243,1040.2433522804865
178.2946455,0.3783916130566435,0.3233291778383219,28.05609986588471,58.23268795976822,0.6936276716763321,1032.0242845475111
178.32368300000002,0.3782934308728096,0.32327776087898136,28.04950693774785,57.73740652826663,0.6842156232573655,1023.2497312869433
178.3526445,0.3781938650018229,0.32322647825948075,28.042932233162023,59.169757802651105,0.6972998995137175,1048.6376411586211
178.381415,0.3780961373366759,0.3231755335995491,28.036401843286807,59.10622071157326,0.6932646246897173,1047.5146801240726
178.410231,0.3779978092704299,0.3231245081085767,28.0298620773606,59.5330799677108,0.6950933118818291,1055.0828310417937
178.4391885,0.3778997086989305,0.32307323177746544,28.023291155288636,59.02666724391832,0.6865353885417027,1046.1109576654464
178.4681765,0.3778003522490777,0.3230219011402423,28.01671427102064,59.86749609682867,0.6936194146396336,1061.0158415606807
178.49713,0.3777019801277533,0.32297063127993697,28.010146169483136,59.56721427700858,0.68816064098387,1055.6971466559376
178.525912,0.3776027947637215,0.32291966477888184,28.0036179167126,60.92920364907222,0.7019670746097093,1079.8385694295846
178.5545755,0.377505529836397,0.3228689077751584,27.997117474954607,60.30060000691003,0.6938126725777332,1068.701054625127
178.5837425,0.3774070898431284,0.3228172588151878,27.990503800789924,58.942550154946375,0.6780234695232707,1044.635593708804
178.61278,0.3773063224175012,0.32276583879299703,27.98392044429853,60.89604721805511,0.7000988282189878,1079.2605148886344
178.641646,0.3772087029872504,0.32271472207269425,27.97737691064894,59.58202601369282,0.6859871950085211,1055.9752319206082
178.6703785,0.3771090422462175,0.3226638413532787,27.97086456866897,61.297129031999084,0.7066974419472803,1086.3752754683217
178.69898849999998,0.3770122723621954,0.32261317714535553,27.96438091059053,59.79800707804824,0.6918019982368593,1059.8092797020806
178.728396,0.3769133851157759,0.32256110022973017,27.9577174746003,57.55130134589072,0.6690192622166103,1019.9936307737298
178.757582,0.3768110953071776,0.32250941509529424,27.951105181347998,60.185443967567615,0.7025628659451999,1066.682264409653
178.7861155,0.3767136586630363,0.3224588849998117,27.94464163226275,59.54166207442337,0.6995381055753843,1055.2754248459908
178.81480249999998,0.3766157695114339,0.32240808259114456,27.938144222099957,58.70415449137241,0.6950734750854937,1040.4350643853547
178.84392400000002,0.3765172184758194,0.3223565102097891,27.93154933220454,56.79587527806619,0.6789250993246754,1006.6169313316783
178.873339,0.3764162884176101,0.32230441752249733,27.92488892644309,56.39520735888885,0.6811915858506916,999.5187288964781
178.902251,0.3763156604865861,0.32225321508576293,27.918343343055952,57.53535282412524,0.7029135405640572,1019.7290722717552
178.931296,0.376218111955241,0.3222017765536347,27.91176857364872,54.44177638186618,0.6750948910425499,964.9028646294771
178.9605775,0.3761165056282276,0.322149918601305,27.905141204885457,54.90415946643021,0.6914334441565084,973.1008548356227
178.9896035,0.3760172699168602,0.322098512552216,27.898572589423146,53.54384433527054,0.6869336254047687,948.9939490400096
179.0185835,0.3759173494446391,0.3220471873678389,27.892015300562548,52.9435368926854,0.6936556667657768,938.3570687569022
179.047495,0.3758183638554708,0.32199598288465764,27.885474421727093,51.39658074144786,0.6901911188776467,910.9419213392428
179.0764375,0.3757188477213856,0.32194472286593456,27.87892743826049,50.112485379169215,0.69218049692754,888.1855166208044
179.10574200000002,0.3756195837247883,0.3218928210489656,27.872299492123844,47.15642394093785,0.673410967212692,835.7952667355755
179.135054,0.375517513758328,0.3218409052673086,27.865670777601814,46.68608733878132,0.6918444120180388,827.4615491580969
179.164042,0.3754181315504856,0.32178956265022907,27.859116244008096,44.44274853412411,0.6884374467295286,787.7030716880855
179.1932585,0.3753182212076185,0.3217378146146826,27.852510957731603,41.78579172557637,0.6811390898569678,740.6133908407581
179.22260899999998,0.3752172008602082,0.32168582850883404,27.845876298182695,39.606062117630074,0.6822026741632159,701.9818618367132
179.2519175,0.3751163012374136,0.32163391604708963,27.839252052092498,37.44308419307135,0.6831353423506881,663.6470078683858
179.281306,0.3750155017941516,0.32158186111997467,27.83261064477812,35.06284006280681,0.6785815209882208,621.4610582229641
179.310866,0.3749139831138413,0.32152950162992955,27.825931407993767,32.882158760282394,0.6753308794991061,582.8119692151282
179.340441,0.3748119338940796,0.3214771147604585,27.819249710194107,31.1143421127463,0.6779798890744347,551.4803907962353
179.370028,0.3747102425543506,0.32142470580765325,27.81256622809291,29.186018740761387,0.6748757638865654,517.303743492545
179.399493,0.3746080408460583,0.3213725121204774,27.80591122381662,27.89379355233795,0.6837279589060832,494.40135602772034
179.4288545,0.3745071211945112,0.32132050092156805,27.799280506116247,26.148425274856333,0.6797520578462638,463.4671025469532
179.4582125,0.3744055637042855,0.3212684950583754,27.792651484714398,24.837352895602148,0.6840116266937801,440.23035316182774
179.48764649999998,0.3743045994846892,0.3212163536819906,27.78600620963379,23.170874721811483,0.6764114770551274,410.6940488553591
179.517664,0.3742024481393127,0.3211631777256494,27.77923013161157,21.25230935761775,0.6580866392183263,376.6894361531816
179.54742249999998,0.3740973855072412,0.3211104596447182,27.77251344733845,21.07155577771814,0.6885960901817348,373.48677990902326
179.5766965,0.3739969519525905,0.3210585989378057,27.765907016792372,19.650908754186073,0.6798243269632487,348.3072940926288
179.606436,0.373895164515213,0.3210059126051643,27.759196444863644,18.23020063844547,0.6676116118444794,323.1265902450033
179.63621,0.3737914445798929,0.32095316416273895,27.752479005284037,17.556871806571323,0.6784835115331652,311.1929202389634
179.6655795,0.3736893479061215,0.3209011313568939,27.74585372341392,16.83047581875521,0.6862754850660812,298.31855510096364
179.695254,0.3735883538979034,0.32084855718230093,27.73916054071945,15.416651035686375,0.6652102459743592,273.25947583239383
179.725409,0.3734840765283787,0.32079513064871584,27.732359906289474,14.60944696673124,0.664944827782578,258.95261601263263
