T(K),Fc,X,m(mol/kg),cp(J/gK),cp_err(%),cpm(J/molK)
175.1109525,0.1814445845997989,0.3289689054909661,28.785385884595918,2.175481434270828,0.7163296344208852,38.54226397698603
175.139559,0.1813186010038622,0.32891817672391427,28.778771399577256,2.1887223264930546,0.7136155469156601,38.77696180858653
175.167845,0.1811920748930529,0.32886801787276554,28.77223220860477,2.2916160570096884,0.7311453621255808,40.60001778836773
175.1964135,0.1810688520698197,0.3288173596326297,28.76562890449273,2.1886104101197037,0.6997319762235168,38.77520447798917
175.224894,0.1809397608134254,0.3287668589805386,28.75904713405224,2.3708223403363395,0.7345716586867079,42.00354176924468
175.25313,0.1808172472191436,0.32871679337328275,28.752523040715044,2.298682616222814,0.7103614049116348,40.725569535946335
175.28148099999999,0.180690245616277,0.32866652534983914,28.745973549341837,2.4144125144460835,0.728415695586494,42.77607057164102
175.3096985,0.1805666478382266,0.3286164954976187,28.739456063423464,2.3997812924606903,0.7151245546487334,42.51697234998647
175.3379045,0.1804407566743643,0.3285664874818858,28.73294239281269,2.5026750775613547,0.7279116798300971,44.3400714461788
175.36636950000002,0.1803171924987935,0.3285160217202713,28.726370083200575,2.434971249772581,0.7024771898151134,43.14068349983399
175.3947775,0.1801889399890455,0.3284656584496967,28.719812106118376,2.611878431159712,0.730035036301307,46.27510408372135
175.4228615,0.1800658114503601,0.32841587097734837,28.713330072515816,2.604721631689306,0.716664246380171,46.14843833330744
175.4512125,0.1799403561470444,0.3283656115543783,28.706787568460438,2.6579327282318745,0.7158732830687752,47.09132778366221
175.4796015,0.1798147950583292,0.328315286147921,28.700237456052708,2.710737990498068,0.7142788479666625,48.02703258336643
175.5079255,0.1796889331748718,0.32826507732835697,28.693703496075177,2.7967150898674937,0.7181274427577193,49.55046048620291
175.5360935,0.1795638778801321,0.32821514637548915,28.68720666507128,2.879766993919414,0.7206973824981354,51.022069449821316
175.56412749999998,0.1794393284540305,0.3281654542552065,28.680741868855776,2.9726879212472195,0.7237375015986618,52.66854039274839
175.592421,0.1793153916863085,0.3281153034552078,28.67421836932557,2.9684679601272768,0.707189952361578,52.593925430162834
175.6208595,0.1791884718120092,0.3280648969405353,28.66766258826599,3.104263564069539,0.7157776022669952,55.00004824525619
175.64924050000002,0.1790631793123482,0.3280145936267113,28.661121209821278,3.1672557733776516,0.7089697142870932,56.11628075689967
175.67767550000002,0.1789366981366825,0.32796419587104314,28.654568532312,3.295803870042679,0.712152695460327,58.39401869560074
175.7060075,0.1788108557508307,0.3279139819181451,28.64804073006032,3.422105606758412,0.7132706490287175,60.63196881481367
175.73444999999998,0.1786852176125308,0.3278635733572553,28.641488609850008,3.512710442438146,0.7058216215157234,62.23746243982762
175.76271300000002,0.1785583229085957,0.32781348413367517,28.634978970594915,3.752638042392138,0.720928950800945,66.48864109566779
175.790705,0.1784342082010814,0.3277638763638592,28.628532857633942,3.8966962192361216,0.718379256849685,69.04123837037595
175.81877,0.1783096501142421,0.3277141403783975,28.622071039131626,4.059429626271131,0.7164602363462179,71.9247374184567
175.84687300000002,0.1781848171356624,0.3276643381942357,28.615601577870173,4.240070130863708,0.7156165702605408,75.12553111407122
175.87512850000002,0.1780598512676202,0.3276142668979938,28.60909812423866,4.390283963028648,0.7082699520828873,77.78724329710985
175.903613,0.1779335917437503,0.3275637909315033,28.602543090770034,4.573759640009581,0.7035446735315476,81.03830926526044
175.9320475,0.1778065178321153,0.327513404691071,28.59600069092861,4.85792098618014,0.710055348378945,86.07335719093527
175.96029149999998,0.1776806310405581,0.3274633571137277,28.589503235233423,5.134286085105084,0.7123376196719803,90.97029714521398
175.9882915,0.1775551801954243,0.32741374295891496,28.583063003304016,5.496392230318808,0.7216989805748291,97.3864441457072
176.0165925,0.1774313943717275,0.3273635965097529,28.576554641609132,5.586828281470139,0.6970051576172752,98.98909885287483
176.04528249999998,0.1773031919117534,0.3273127618617353,28.569957951004948,5.95896420987865,0.7017757336995097,105.58302435299922
176.073141,0.1771758698130532,0.3272634015289061,28.563553532747314,6.685275721292514,0.7389001792566169,118.45240442425563
176.10078249999998,0.1770550029430979,0.3272144266538386,28.55720005573921,6.806845036626169,0.712020428465161,120.60675908709135
176.129313,0.17692954341884,0.3271638776589322,28.550643339235258,7.0131273253299256,0.6934084552920996,124.26212421436541
176.157908,0.1768006821093455,0.32711321538842714,28.54407291816791,7.608968065722687,0.7084616049338464,134.81992461769923
176.18584299999998,0.176674574702959,0.32706372340488077,28.53765522763509,8.263962849384411,0.7260808926828238,146.42590410214834
176.213927,0.176551526883566,0.32701396837435776,28.531204378919078,8.39034577021712,0.7008889327609791,148.66565988041745
176.24206800000002,0.1764240181389935,0.3269641132832573,28.52474151378338,9.124004520937442,0.7228905012216092,161.6655725271571
176.270125,0.1763003911428827,0.326914407912646,28.51829901045768,9.319572773437816,0.7048023487189211,165.131262632079
176.29828500000002,0.1761735593217537,0.3268645209612338,28.511833928418344,9.95289345520299,0.7173947020851773,176.35342641569463
176.326487,0.176048941551199,0.32681456048488655,28.50536027826039,10.192063218261406,0.7026068934338563,180.59175026590702
176.35447549999998,0.1759216614980099,0.3267649790839681,28.49893669686964,11.083010438941972,0.7283842265438596,196.37888161296428
176.382464,0.1757988798760327,0.32671539851967446,28.49251416992379,11.158810769846818,0.7024733070274719,197.72254629250716
176.4107765,0.1756715268470998,0.3266652448371173,28.486018365149107,11.830079527437436,0.7115598095922545,209.6173382946587
176.439089,0.1755457774798479,0.32661509197887245,28.47952363472845,12.196673426191364,0.7023683827560742,216.1136455514538
176.46728000000002,0.1754183504051232,0.32656515514930934,28.473057840868925,13.029745241846998,0.7176487724508118,230.8755638006289
176.49527999999998,0.1752936149422426,0.32651555743009597,28.4666369039285,13.481036411167183,0.7118062353870835,238.87272746000738
176.523314,0.1751678233628452,0.3264659002461085,28.460209216010533,14.13701879566729,0.7158499791262903,250.496905796918
176.551207,0.1750427115246813,0.32641649355868246,28.453814893231208,14.787612290205937,0.7189501357214545,262.0256597327246
176.57916849999998,0.1749181098455325,0.326366966263654,28.44740590255211,15.234338373529672,0.7123142206601916,269.94208972305717
176.6074505,0.1747923122982606,0.32631687200121845,28.440924503058863,15.609936128553867,0.7027300463340426,276.5982248874033
176.63564150000002,0.1746647667544425,0.3262669396305468,28.434465008940126,16.5433251335502,0.7168986771597574,293.13813353495306
176.663737,0.1745397111468078,0.3262171770995134,28.42802843861727,16.919832306111967,0.7074285059036266,299.81048275336576
176.691981,0.1744129472529852,0.3261671522235103,28.421558893307925,17.57587608035098,0.7093177085415777,311.4361299732114
176.7203315,0.1742864869156497,0.3261169393849917,28.415066005390084,17.994184268354022,0.7021212083442884,318.84927451846926
176.7482015,0.1741586931953367,0.3260675782174068,28.40868418782149,19.478027765516153,0.7342875741236752,345.1433311605022
176.775984,0.1740364699915069,0.3260183726354046,28.40232341600621,19.321287162212215,0.7064226940069234,342.36691802190586
176.803858,0.1739093874605574,0.3259690055972153,28.395942706133955,20.594672160136387,0.7293618928478232,364.9319244671287
176.83145000000002,0.1737862718662122,0.3259201385797167,28.38962754458679,20.957682666401137,0.7207425138524568,371.36541722877433
176.85957200000001,0.17366164806498,0.32587033347689753,28.383192094890273,20.998380710327364,0.7022300744187754,372.08764602757344
176.88761,0.1735336999705236,0.32582067770394374,28.376776887070154,22.315162615710538,0.7251094440664321,395.42192409971244
176.91587700000002,0.1734097576578282,0.3257706169213996,28.37031031113421,21.81734412785408,0.6911071581349036,386.60175801270327
176.94399900000002,0.1732796758243405,0.3257208134692899,28.363877928535533,23.78402061348987,0.7327936782275103,421.4523332676025
176.9715865,0.1731569637983599,0.32567195710949703,28.357568791196858,23.872169305237,0.7175725842079044,423.01551792055847
176.9994415,0.1730316126692144,0.3256226275098847,28.351199468819694,24.497162703108252,0.7187032190681598,434.0916534561562
177.0269305,0.1729064227027204,0.32557394654531135,28.34491481012675,25.7229463790596,0.7369020356786911,455.81391630099023
177.05456800000002,0.1727842919279726,0.3255250030546042,28.338597174156096,25.35117494105739,0.7111075509039287,449.2273464554526
177.08277750000002,0.1726576925451935,0.3254750470607984,28.33214978953489,25.73071845054685,0.7071083127287876,455.95423863722283
177.1109945,0.172530339652623,0.32542507823149786,28.325701703645137,26.370049096613773,0.7107218488313173,467.28467087978805
177.13900999999998,0.1724035972252268,0.3253754666600856,28.31930066407471,27.103916871410583,0.7173127961849077,480.2903877945619
177.16701,0.1722779838841723,0.3253258829462254,28.31290415936941,27.334732293470008,0.7114962462898278,484.38189845806085
177.194983,0.1721513059298743,0.3252763474386621,28.306514812231267,28.057169222842514,0.7186971065603968,497.18517695102753
177.222613,0.172025861408188,0.32522741969810676,28.300204778938085,28.905312223181767,0.7292782076691613,512.2160829503462
177.2502885,0.1719022015124855,0.3251784117406477,28.29388531762737,28.781422272355016,0.7163530978757549,510.0221344976382
177.278231,0.171776272841444,0.3251289313238914,28.287505864928416,29.121394391869195,0.7153510024574592,516.0480939093933
177.3061545,0.1716501307676986,0.32507948488470934,28.281131727348455,29.567401063917266,0.7173230094676838,523.95308614939
177.33391799999998,0.1715242986118536,0.3250303220854666,28.27479507965999,30.179750960429136,0.7236251298342764,534.8058304782899
177.3618225,0.1713995260441322,0.3249809099089861,28.26842721951564,29.92509806574975,0.7101414072837968,530.2947178967963
177.39000149999998,0.1712723457841279,0.32493101195046054,28.261997701521164,30.196872337383635,0.7095329640460104,535.1122972197525
177.417563,0.1711450187900924,0.32488220769879467,28.255710030686735,31.93046085293336,0.7426888154449783,565.8344397492931
177.44488,0.1710233422703976,0.3248338366412693,28.249479067137276,31.295919545998334,0.7220517005899616,554.5913845377976
177.47288,0.1708981502999496,0.32478425641635894,28.243093270047428,30.876945202180345,0.7068472987692843,547.1683527220263
177.500594,0.1707702264275557,0.32473518284458563,28.236773651901828,32.48881740657749,0.7372677855757005,575.7338651036046
177.5283305,0.1706475460882813,0.32468606964285684,28.23044984985054,31.309527939971296,0.7057257534485519,554.8372646925028
177.556357,0.1705193423866947,0.32463644313597523,28.224060888989428,32.276527324832664,0.72183925588953,571.9751320750246
177.58445999999998,0.1703939640943457,0.32458668135721497,28.217655455815475,31.59305336046514,0.7019354877481642,559.8648372428864
177.612563,0.1702649903485041,0.3245369197502841,28.211250988539213,32.731083659659035,0.7218368163896642,580.0336927175504
177.6401545,0.1701395360130702,0.324488064002188,28.204964025959423,33.23848492654039,0.7280610532739967,589.0271053402621
177.667872,0.1700151175817414,0.3244389852860798,28.198649286486045,32.85357713926449,0.7153318637181805,582.2077103588172
177.695956,0.1698884466129543,0.32438925774328964,28.19225200110043,32.761126274345216,0.7091432328220061,580.571026578448
177.72376500000001,0.1697606314260468,0.32434001724564876,28.185918300348572,33.92614978403626,0.7296782213363324,601.2185101606856
177.751307,0.1696363767810692,0.3242912496102742,28.179646332716015,33.79771849233295,0.7228241875391238,598.9442133994013
177.7790015,0.1695109060872363,0.3242422120286164,28.17334056029465,33.94514157060767,0.7216486469511384,601.5584633935553
177.80670750000002,0.1693851935249404,0.32419315415032324,28.16703309359789,34.19253466429174,0.7222223990049745,605.9443514389005
177.83449000000002,0.1692595428768785,0.3241439608684609,28.160709137266856,34.217603118317044,0.7176877304969118,606.3903230071027
177.8621655,0.1691330599963143,0.32409495708419594,28.154410456688122,34.991086168591934,0.7278428320582929,620.0994243405883
177.889727,0.169008304879544,0.3240461551774903,28.148138631975186,35.096190041075026,0.7236028257794416,621.963787406647
177.9173685,0.1688827811139618,0.3239972116270598,28.14184951327637,35.439256313110306,0.7236291545051214,628.045273740772
177.9452235,0.168757223968387,0.32394789003626495,28.135512738568956,35.250933826585396,0.7125969630692367,624.709648198809
177.97332649999998,0.1686296838044845,0.3238981293026543,28.129120480274906,35.54396980674226,0.7108729623162005,629.9045775666038
178.001273,0.1685017953037031,0.32384864564160903,28.12276474771274,36.43529040442703,0.7206274266722914,645.7022616379754
178.029311,0.1683755998630418,0.3237989999156046,28.116389134145894,36.08981757041972,0.7062779820307616,639.5816603378003
178.05708950000002,0.1682468005043764,0.3237498136117552,28.110073443739893,37.96162300905539,0.734352421535257,672.7555959937496
178.084811,0.1681228888093655,0.3237007281579713,28.103771618668063,37.02983020935087,0.7091300044286163,656.2442282915855
178.1129215,0.1679945296158893,0.32365095382221115,28.09738228568187,37.67792974438985,0.7139635810965638,667.731792135487
178.140509,0.1678670001434163,0.3236021054391983,28.09111272782828,39.280819488918304,0.7364305043132524,696.1403146211514
178.16772650000001,0.1677433251760016,0.3235539120876309,28.08492812884794,39.49991677261293,0.7333246528443947,700.0251332270556
178.1956045,0.1676190892299426,0.32350454907073145,28.07859434153938,38.16172110509632,0.7022816681049626,676.3112966979782
178.2234445,0.1674893200583753,0.32345525318965956,28.072270090838984,40.35697855619221,0.7353724863230023,715.2182156099364
178.251162,0.1673653539450373,0.32340617405435274,28.065974562300756,39.191371200371385,0.7083708466890364,694.5629454453427
178.2792875,0.1672366219410004,0.32335637229597025,28.05958727426245,39.83501597063493,0.7139558467582885,705.9718663037111
178.307028,0.1671088576752777,0.3233072520632054,28.053288315737703,40.96836216689768,0.7282233161606292,726.0595308975176
178.33462,0.1669835585886827,0.32325839457582883,28.047023957580585,40.900704450432166,0.7216038353622068,724.8625126310376
178.3627575,0.1668570711139514,0.3232085709407367,28.04063665435851,39.97069766703856,0.7004070261925454,708.3825073598663
178.390761,0.1667267141800474,0.32315898434269785,28.034280672538273,41.899503961882886,0.7286456729579892,742.5679875933382
178.418276,0.1666013713983644,0.3231102624987984,28.028036441425762,41.97736858701586,0.7252113926122641,743.9500406994076
178.4461235,0.1664753963745405,0.3230609516214016,28.0217176345088,41.428212347506474,0.7114144724728098,734.2196265001379
178.47394400000002,0.1663469377585199,0.3230116882754935,28.015405837559406,42.58547099909839,0.7266314491415039,754.7315137826389
178.5017455,0.166221131213623,0.3229624582814685,28.00909923137233,41.9778903547541,0.712375741847963,743.9656275718222
178.5294635,0.1660927664381898,0.32291337584130764,28.002812440535966,43.33088254200859,0.7310668744698239,767.9466065445454
178.55721899999998,0.1659676454528336,0.32286422667743864,27.996518016563147,42.30841075154774,0.7104767549934418,749.8276200797316
178.584837,0.1658388577809893,0.3228153206658592,27.99025563947535,44.21534318056762,0.7384881751177357,783.6261972768845
178.61233349999998,0.1657149175161075,0.32276662946456985,27.984021667197094,43.082941107526594,0.7166610403615552,763.5588384992456
178.640223,0.1655871624828924,0.32271724197032087,27.977699463654762,43.32535563755369,0.7176625461307471,767.8573368786182
178.6682725,0.1654595459611321,0.3226675707607032,27.971341870996856,42.935107876394085,0.7085373717923562,760.94313639244
178.6961315,0.1653302447628258,0.32261823650184773,27.96502832876718,44.27157799914025,0.7276080384319766,784.6317594400595
178.72380700000002,0.1652042935558231,0.3225692267915897,27.95875723110132,43.82098841389022,0.7178672248161728,776.6480876971375
178.752005,0.1650765934478284,0.32251929137386315,27.95236861658412,42.91052573300475,0.7009654804097398,760.5139661036284
178.77988299999998,0.1649457717062332,0.32246992220040627,27.94605337171786,45.140980564715974,0.7347419177642706,800.0471513828522
178.80731450000002,0.1648209258393801,0.32242134329427735,27.93984011518446,44.56348836445889,0.7236062515275198,789.8142957743443
178.8348985,0.1646941189899602,0.3223724938695774,27.933593157553364,44.85362306045127,0.7266022737687355,794.9586933403442
178.862765,0.1645677956619746,0.3223231436801985,27.92728307568256,43.84504480910447,0.7091137986422998,777.0854687077582
178.89033,0.1644383154422473,0.3222743269478016,27.92104210754304,46.04199009643931,0.7428720690363362,816.0252157434734
178.9179785,0.1643146815857422,0.32222536184161577,27.914783073692345,43.72088684652383,0.7049414178301223,774.8893295456332
178.94613850000002,0.1641843530373723,0.32217549034916404,27.90840910928871,44.4507247794238,0.7156840121865864,787.8269138834577
178.97379899999999,0.1640559401438793,0.32212650294181555,27.902149050913593,45.436683411177256,0.7306614829934621,805.3039257062551
179.00134500000001,0.1639301204818398,0.32207771777917693,27.895915736337248,44.892203734939876,0.7215958049743715,795.6559956892498
179.02934900000002,0.1638026796687776,0.3220281209146866,27.889579629624006,43.984200614872286,0.7070084974577373,779.5650489276926
179.057349,0.1636725673559995,0.32197853055171366,27.88324528027624,44.917131466145264,0.7218035793911505,796.1023596726633
179.08512000000002,0.1635450818218158,0.32192934517739646,27.87696357673652,44.70277544828755,0.7186406469431698,792.3054026372027
179.112616,0.1634169943242575,0.3218806462648258,27.87074489936918,45.79718219596036,0.7364183481140175,811.7047854049584
179.140276,0.163291960126995,0.32183165627902943,27.864489954132644,44.108158846171996,0.7102712406946162,781.7709084416838
179.1682685,0.1631622812101638,0.32178207675085935,27.858160657291617,44.59517332817789,0.7188214613133436,790.4049891531163
179.1960205,0.1630341038341171,0.32173292254467245,27.851886570271247,44.7700203250445,0.7226130829004539,793.5062264717044
179.223898,0.1629065583676472,0.32168354539302346,27.84558494179115,44.05250505015457,0.7123963891277146,780.7911701024788
179.251917,0.1627771420425262,0.32163391693271726,27.83925216509362,44.14876826145497,0.7153000077114625,782.4995880471594
179.27961549999998,0.1626482096286901,0.321584855470615,27.83299265019453,44.91048651510852,0.7290389715014854,796.0026514404065
179.3074095,0.1625216668281892,0.32153562415371356,27.826712374331432,43.64006476133,0.7104495256687027,773.4876316491428
179.335116,0.1623917706493627,0.32148654711450303,27.82045268624602,44.966521051343975,0.7337185157725351,797.000335978524
179.362822,0.162265954476627,0.32143747023785396,27.814193924354495,43.38904320500013,0.7104748605347551,769.0428132459822
179.3909285,0.1621359797423706,0.32138768318466343,27.80784551882996,43.38843616765951,0.7127782500275721,769.0342611748969
179.41872999999998,0.1620063830102402,0.32133843563967956,27.80156682299023,44.06102444135757,0.7262091910478813,780.9577060537391
179.4466615,0.1618791422614022,0.32128895703751714,27.79525958666996,42.667578931794104,0.7062369563754894,756.2617990474125
179.474547,0.1617482602494664,0.32123955913174357,27.78896355433311,43.86018497563269,0.728641546845229,777.4023669857196
179.50241699999998,0.1616213623958263,0.32119018788159714,27.78267183500119,42.3499630981127,0.70701185095736,750.6364890545746
