T(K),Fc,X,m(mol/kg),cp(J/gK),cp_err(%),cpm(J/molK),cp_SMA_1K
181.510611,0.8363011385781547,0.3176296969902293,27.33133424993163,3.098159294253301,1.8705129716828024,54.92493004016149,
181.540545,0.8362735551301645,0.3175765664117807,27.32463493574735,3.255008320433065,1.799111690628594,57.70576486788935,
181.570479,0.8362463603763772,0.3175234337391133,27.317936400640413,3.0847079691839885,1.8977326380269204,54.68679657757822,
181.5999745,0.8362187562870151,0.3174710773367551,27.31133675155302,3.576522842735256,1.6415596674595536,63.40605636752029,
181.629317,0.8361923444994386,0.3174189904699495,27.30477208269193,3.180126614194007,1.848752403120369,56.378751531045616,
181.6592125,0.8361650004166217,0.3173659198358231,27.298084456959018,3.137109916749428,1.851827242782667,55.61630179405787,
181.6892415,0.83613755534668,0.3173126100429199,27.291367740751284,3.0744042898889847,1.9061137130815609,54.50479158491581,
181.7186985,0.836109945897666,0.3172603135802698,27.284779717310418,3.577288003589377,1.678561979095335,63.42039185041208,
181.7481365,0.8360835295959459,0.3172080487276956,27.278196684200864,3.08815889081934,1.904073560790128,54.748970931206486,
181.7780055,0.8360559345655786,0.3171550164846752,27.271518024259585,3.242975441839579,1.793265656276302,57.49383926145771,
181.8077415,0.836028707325591,0.3171022181811207,27.26486985612546,3.2002667906505806,1.812979035576724,56.73684172515184,
181.837531,0.8360013358192773,0.3170493226660437,27.25821047824255,3.228873207731667,1.81384685283542,57.24417325806839,
181.8670835,0.8359739898497617,0.3169968457681159,27.25160482219853,3.4045301219558906,1.7387257665376927,60.358548963905136,
181.8968265,0.8359470334030047,0.3169440283570944,27.24495732812909,3.1037254611244385,1.8677275478622448,55.02578293596173,
181.92639,0.8359193167015739,0.3168915274591511,27.23835068850109,3.5558993459200203,1.6952429713857131,63.042540347425565,
181.956095,0.8358926701691991,0.316838773008639,27.23171316497975,3.0065908553566807,1.9283427263452744,53.30401205667829,
181.986159,0.8358646723187424,0.3167853786634496,27.22499617417162,3.282611592685308,1.7695715247554904,58.197777746866095,
182.0158565,0.8358373448200842,0.3167326329126129,27.218361807072384,3.28707041663718,1.8160847601867176,58.27700588004267,3.2574788582187826
182.045508,0.835810000576177,0.3166799665478993,27.21173844707743,3.32973584557072,1.759064457421048,59.03360739486151,3.267599735493666
182.074881,0.8357827372097913,0.3166277925529816,27.20517801449397,3.50885572440602,1.704160139526538,62.20944955206698,3.269512018704638
182.1044905,0.8357558856335408,0.3165751961446229,27.198565480911768,3.149253779747667,1.844951272329175,55.83413893319575,3.272643476197084
182.134394,0.8357281658438469,0.316522075104464,27.191888022491817,3.264862292098966,1.7618670361435853,57.883976857648506,3.266511712596631
182.1641565,0.8357007517512518,0.3164692021386835,27.18524277831917,3.2347644439280043,1.8136168599294709,57.35053549823266,3.263210997690393
182.1935945,0.8356732709856833,0.3164169032745058,27.17867070037454,3.504736774121552,1.7014281991107212,62.13717879554218,3.2695445204718223
182.2233375,0.8356464350343366,0.3163640601432722,27.172031249015404,3.0040232968339216,1.9360337536785923,53.259948808980525,3.2753341019300657
182.2531455,0.8356183704064779,0.3163110990816026,27.16537801012044,3.4495083022237902,1.7421049037625809,61.158379348798505,3.262979240352061
182.282488,0.8355913939696891,0.3162589626833304,27.158829376392408,3.3517320918274107,1.7447895186344011,59.42502545893084,3.266004146766607
182.312357,0.8355641681360073,0.3162058883174677,27.15216395422109,3.056593112338733,1.914559058972374,54.19248142037775,3.271247853826337
182.3421385,0.8355361981113609,0.3161529669327798,27.145518774572515,3.418892511695266,1.7346815037621797,60.61612625629149,3.278588975049402
182.371863,0.8355091132329643,0.3161001443331537,27.13888702462188,3.0891310411831943,1.8413762072774933,54.76970294234793,3.2785753984579364
182.4016445,0.835481227271228,0.3160472179161651,27.13224326803177,3.35917193171636,1.775861599315529,59.55765798399932,3.2745055391813462
182.431227,0.8354540162063976,0.3159946426362193,27.125644606975552,3.227366735934612,1.8130243307307048,57.22094330505804,3.2812744281365998
182.460913,0.8354264773184609,0.3159418808736581,27.119023560429,3.278131975709276,1.8077086692422533,58.12118350675571,3.2762925190720127
182.4907135,0.8353990538234741,0.3158889130337863,27.112377680628104,3.1434919443550187,1.8505358060280228,55.73418984489468,3.2831568182014905
182.5203115,0.8353712817058663,0.3158363025524358,27.10577765728938,3.442269121599357,1.7184212671877772,61.031701627224216,3.283659729442745
182.5497,0.8353442124739038,0.315784061909887,27.09922503479438,3.3200259496061,1.7797937135015678,58.86449781713186,3.282357275498273
182.5794355,0.835316807599356,0.3157312018446762,27.09259573556962,3.191177523927136,1.8259796109357664,56.58017060495711,3.282032373394724
182.609095,0.8352890741152321,0.3156784742620001,27.08598407158303,3.3680428803198703,1.7402443301074333,59.71620770582815,3.278916980680223
182.6388955,0.8352617891860277,0.3156254933624534,27.07934166960576,3.067902307381912,1.888067963473492,54.39480947703902,3.2870512698201644
182.668696,0.8352337726363911,0.3155725097883282,27.07269996074944,3.352449691318021,1.7514649519778238,59.44009971140362,3.28072522376426
182.698222,0.8352064666236659,0.3155200116058215,27.06612011187174,3.2712500594692613,1.798637103095543,58.00057745898071,3.2929229277310097
182.728022,0.8351789383894153,0.3154670235482816,27.059479888021173,3.157222709937217,1.8668705023856864,55.97899769458024,3.283112076711082
182.7579365,0.8351511021799087,0.315413829157281,27.05281484133359,3.191005708913896,1.8305919044586056,56.57815910858616,3.2957843064929415
182.787516,0.8351233397221092,0.3153612277543867,27.046225112163533,3.421261481870408,1.7372671515031315,60.660895314292326,3.287006484783591
182.81679000000003,0.835096104945938,0.315309166951746,27.039704104556087,3.449864912234802,1.7131050727582766,61.16823378213134,3.290393262589667
182.846346,0.8350688895463166,0.3152566019285922,27.033120945563905,3.228411603621839,1.800129599437564,57.24190336411476,3.2937926223321052
182.876158,0.8350411090496751,0.3152035788353574,27.02648144250783,3.2661549065518094,1.799625935601333,57.91129440042316,3.2897957263173607
182.9058515,0.83501339593619,0.3151507637159405,27.01986900380209,3.3338676856030647,1.758461112882178,59.11207098075935,3.297995806004137
182.9354115,0.8349858145525221,0.3150981832701131,27.013286959194986,3.386514437724075,1.721078073953542,60.04572085127692,3.2933955771430363
182.965117,0.834958328709297,0.3150453412034652,27.00667318286621,3.2399770257589102,1.846664273054872,57.44766545829579,3.292189190514753
182.994948,0.8349304547188184,0.3149922730387549,27.00003213477596,3.2997105748879507,1.7559810615572713,58.50697317529431,3.288877971624547
183.0247785,0.8349027134130276,0.3149392028909747,26.993391867474585,3.242786982525132,1.7800687027594555,57.49784017041421,3.2874770403115408
183.0545865,0.8348748185445872,0.3148861698866185,26.986757275304,3.318689174050069,1.7721241085815709,58.84384139498757,3.283939114980428
183.084185,0.8348470975083289,0.3148335067451258,26.980169970453847,3.402932372112968,1.7477358378217165,60.3377448098761,3.2817327857084324
183.113646,0.8348195719794812,0.3147810853951869,26.97361391538972,3.425819610505693,1.7115180302679178,60.74374429507915,3.2808765457717683
183.14358,0.8347920862073923,0.3147278194803255,26.966953262561905,3.049776726198193,1.8944973283097568,54.07623498295169,3.2810397514550536
183.1732165,0.8347636554218848,0.3146750800214841,26.9603594606707,3.649486378797511,1.6493065185935518,64.71001010815166,3.2879608920268626
183.202666,0.8347367041263952,0.3146226704349705,26.95380790666546,3.171167839444013,1.846103678300277,56.228987153661365,3.2821567376218965
183.2323785,0.8347086008379048,0.3145697898545928,26.94719849067093,3.434879109417136,1.711281743134022,60.90512128630856,3.280737430940608
183.2621215,0.8346811365366776,0.314516852010733,26.94058293885632,3.1510623641058704,1.8447744890663285,55.87283127518997,3.2844824994490516
183.291819,0.834652954092489,0.3144639921577872,26.9339781528964,3.466882537234002,1.713584622491374,61.47296077321585,3.2888077542339262
183.321467,0.8346255533735247,0.3144112174140862,26.92738501726985,3.172171343581636,1.833348182714431,56.247465993092185,3.2771719492286717
183.351317,0.834597441485872,0.3143580800594432,26.92074760619725,3.2829980471939324,1.802254561575788,58.21277177763543,3.27906258351864
183.38085,0.8345696407149018,0.3143055039913941,26.914181318167472,3.367933750533595,1.7493033507280102,59.71899768625761,3.2811761358523737
183.4104215,0.8345421008124269,0.3142528563587402,26.90760710127673,3.20276415043894,1.8016710484347216,56.79044165686638,3.280232679920568
183.4401765,0.8345142060375385,0.3141998789607502,26.90099272480311,3.186349590572985,1.819098355040985,56.4995561487174,3.275836931007511
183.4699465,0.8344863002283635,0.3141468717572186,26.89437564971608,3.165550533442268,1.8278673602530755,56.13092391067145,3.27493030087344
183.4998195,0.8344583552178173,0.3140936780246095,26.887736317697136,3.095860279712826,1.906080247871537,54.89535821060087,3.2684892182442
183.5294865,0.8344302338951122,0.3140408479879687,26.881143399269067,3.3219796603415,1.7589010173463198,58.9050545293328,3.272995419033836
183.558974,0.834402653563682,0.3139883345019843,26.874590991082485,3.245010754358264,1.794101836950543,57.54042270169289,3.2742615797326002
183.588698,0.8343748472711957,0.3139353966988769,26.86798665369317,3.162065366080558,1.8658355040282253,56.06980887914789,3.277037008262113
183.6182695,0.8343468006495824,0.3138827273503244,26.86141681915091,3.373591873551561,1.7332234217312867,59.8207828702568,3.2775475969323726
183.647654,0.8343192590452099,0.3138303879423267,26.85488913964032,3.30322108682341,1.818617420295223,58.57313948588661,3.2714691209206754
183.677321,0.8342915420319201,0.3137775421748639,26.848299318114297,3.155108441549193,1.7939213645834624,55.94695745416337,3.2736169871892127
183.7070985,0.8342634470826875,0.3137244963521923,26.84168557052845,3.222993632305423,1.8351742843120813,57.15088471246391,3.2653614579258083
183.7367195,0.8342354999805588,0.3136717261015082,26.835107195619862,3.284555039224305,1.7941758235977812,58.24268323281953,3.268145356539498
183.766207,0.8342076773566744,0.3136191904795903,26.828559074470515,3.338064371599653,1.7699847094198928,59.19170543482179,3.2659156906137605
183.796053,0.8341799595729263,0.3135660128751247,26.82193195638024,3.025644111691754,1.901482671391716,53.6519263453681,3.271410214898599
183.8256745,0.8341514391128335,0.3135132320007662,26.815355294985785,3.5141464780937195,1.6759301352969194,62.31443437470148,3.269652545328054
183.854922,0.8341241224276497,0.3134611143253403,26.808862262488216,3.300272382968781,1.7905671228787512,58.52209796263568,3.2719681059449512
183.88452,0.834096284778571,0.3134083688122261,26.80229201503927,3.234077404870432,1.8184166195217384,57.34846945562723,3.270312731121558
183.914267,0.8340682850695933,0.3133553544486432,26.795689295353544,3.184412222559114,1.829246661125097,56.46795116357308,3.2628706829648224
183.9438765,0.8340401438730236,0.3133025818102003,26.78911769405734,3.355689013165656,1.7522715420979933,59.50531724181166,3.269233812057637
183.973753,0.8340123813794001,0.3132493299239315,26.78248743739725,3.020980216364754,1.900231702775634,53.57020184487884,3.265037968931049
184.003546,0.8339837131480585,0.3131962234741852,26.77587631262437,3.452921401735579,1.7129912396927844,61.22988210391839,3.2678153210328587
184.033011,0.8339560860539958,0.3131436983401839,26.76933856038024,3.285836446283116,1.7904677588982656,58.2671783508327,3.2728392887315283
184.062537,0.8339280149664279,0.3130910611096503,26.762787858623582,3.4130537440535065,1.7281419540905354,60.52328460601914,3.2643521541068936
184.091872,0.8339002504061274,0.3130387610403732,26.756280110823138,3.420292386901793,1.7300871379512786,60.65182939788115,3.265237081252149
184.121432,0.8338725183149879,0.3129860564432263,26.74972302958309,3.219151426107981,1.8113693839041736,57.0851827759741,3.268708501486327
184.1513545,0.8338443056363202,0.3129327020425619,26.74308612968789,3.1228041793284684,1.8628422936250888,55.37682817820856,3.27119955346491
184.1810595,0.83381586464972,0.3128797319874214,26.736498059174767,3.368798383841756,1.7403385947826897,59.73923690192946,3.2574842355287514
184.210566,0.8337880411404918,0.3128271124541608,26.72995458990115,3.2658203923094606,1.8005253273232806,57.913293525008136,3.2633831500622255
184.24008,0.8337599534337694,0.312774476096834,26.723410031003542,3.359070467942061,1.7498663044056115,59.56709207105546,3.265560805688165
184.2694915,0.8337320933254654,0.3127220190948528,26.71688876964669,3.3378761897903844,1.7791580336011217,59.19142846056996,3.2726317443311266
184.298827,0.8337041774631266,0.3126696942001975,26.7103849230336,3.407121771835472,1.7209322494351764,60.41956057893821,3.2685443061033546
184.3282495,0.8336764392227803,0.3126172106572845,26.70386235153821,3.250900404556129,1.8101934704120344,57.6494123410921,3.2747133048673014
184.357874,0.8336483357937263,0.3125643632636761,26.69729556759171,3.2267153031985814,1.8159957133401985,57.220703285936864,3.265658130505889
184.387648,0.8336201915390683,0.3125112455959911,26.690696216896114,3.1149041132045787,1.862155076746821,55.2380773626276,3.2630779538018566
184.4171395,0.8335917812303492,0.3124586283630411,26.68416004565441,3.419110539594636,1.7402606127294329,60.63289855292126,3.2672175315961947
184.4466995,0.8335641510441035,0.312405885351696,26.677609254014005,3.0436909242690025,1.89297995637046,53.97554766002733,3.262712443146054
184.476454,0.8335355874815279,0.3123527916806852,26.67101592465839,3.259980504903777,1.7810221835733608,57.81131389194422,3.2565100248196
184.505915,0.8335075648274113,0.312300218135571,26.66448818923854,3.266675181467607,1.805038041703098,57.93021034674387,3.2623507659585327
184.5357005,0.833479536536043,0.312247061865844,26.65788911511556,3.0334170831039167,1.8993307121389784,53.793847918784365,3.2626772553361594
184.5655045,0.8334508732951733,0.3121938688911517,26.651286505321973,3.275098277296949,1.7783990902986748,58.07993882807059,3.2647684771499588
184.5950035,0.8334227867808119,0.3121412166187344,26.64475201618018,3.280093654042603,1.7787885567903323,58.1687023110653,3.2527851507841454
184.6242815,0.8333946812277254,0.3120889552004363,26.63826702375496,3.4582876408233885,1.7304593737544889,61.32895315003928,3.252671257180136
184.6541735,0.83336699318299,0.3120355940672924,26.63164658697205,2.8369002769940126,2.0290744284768474,50.30948179505736,3.260277491404752
184.6842065,0.8333376938870889,0.3119819774285833,26.624995484311963,3.355671535687311,1.733900901313744,59.50953544105091,3.261384273095694
184.713618,0.8333097139470903,0.311929466618321,26.618482563520065,3.2970339235873807,1.7770370425874742,58.46983194620723,3.263825991106462
184.742812,0.8332815766334812,0.3118773404842259,26.61201833725904,3.524966953085003,1.6892195083068284,62.51220010248403,3.2663577125516063
184.7721315,0.8332539892423243,0.3118249865991451,26.60552685301597,3.1990914718553887,1.827412704486437,56.73325513268378,3.2660491796947007
184.801821,0.8332255894254497,0.3117719682668244,26.59895398886274,3.2353900696659386,1.819185142124536,57.37715617385772,3.2714254541615815
184.8314995,0.833197272496416,0.3117189657780654,26.59238410105252,3.2062705498057107,1.8166389352265693,56.86091751533501,3.2665065078364384
184.861216,0.8331688703091433,0.3116658916035388,26.585806341312068,3.2125463750316787,1.7881648850226184,56.97238901223955,3.273396088034768
184.8907265,0.8331404573522997,0.3116131815483204,26.579274712647884,3.3748230498779224,1.7441722960709831,59.85044046932046,3.2823804323719705
184.920485,0.833112425875136,0.3115600246785199,26.57268872936285,3.0312392152543373,1.937139750295596,53.757354137801656,3.295399899448863
184.950537,0.8330835148447289,0.3115063395971026,26.56603833436069,3.1448067900662187,1.8451915884376,55.77158489370207,3.29087283404805
184.980322,0.8330548980596914,0.3114531275637437,26.559447562935507,3.219565415088454,1.7723260546610733,57.09756699453271,3.3052068595220048
185.0096875,0.8330264743460403,0.3114006611448904,26.55295013963197,3.464022040574887,1.7069891237270411,61.43308270760514,3.302431660438254
185.0388815,0.8329986378150015,0.3113484973471109,26.54649117430992,3.356937987952312,1.7443533132854832,59.534167639027565,3.305778794318606
185.0686935,0.8329705196303135,0.3112952253899813,26.539896005592496,3.0056206476158382,1.9366043391632304,53.303836219561646,3.3212473288018356
185.0984675,0.8329414749173458,0.311242017369286,26.53330977069632,3.4164200043654773,1.7346562109627155,60.589432931164986,3.317494083532731
185.1276805,0.8329134062023987,0.3111898080228693,26.52684814350065,3.4777633897449225,1.6890497801126774,61.67752947021249,3.3223299101032175
185.157294,0.832885414297121,0.3111368789787473,26.520298443587706,3.1604347568205022,1.83406594780121,56.04993222529539,3.3167127024151943
185.186995,0.8328565533940003,0.311083789557848,26.513729908862874,3.451816796207866,1.7190480134506425,61.21774507611143,3.3309943390559393
185.216486,0.8328283701105427,0.3110310715394962,26.507208327937427,3.351898921444361,1.752136965790549,59.44588866107346,3.3439930731351204
185.2461455,0.8327998888050994,0.3109780483112275,26.500649997082576,3.34858035080728,1.7297370405461217,59.38721527233636,3.336010505617679
185.2756065,0.8327713581358134,0.3109253759613609,26.49413606494487,3.520669521664323,1.674740092897838,62.43941353825894,3.328724929320557
185.30522,0.832743234946423,0.3108724269425507,26.48758892108328,3.2398775967806115,1.8139522512960269,57.45971695592216,3.3284572328506385
185.334891,0.8327143871091093,0.3108193710567941,26.481029572196444,3.4851461312993304,1.7078332993396264,61.80978028030621,3.3343174915690796
185.3641915,0.832686129740797,0.3107669736765778,26.474552626096937,3.532183010663478,1.675802911244825,62.644178079231565,3.333504020025372
185.3933965,0.8326579714287785,0.3107147431062299,26.468097279720865,3.5575659938189026,1.65406722212216,63.094541706516985,3.337421147169065
185.422934,0.832629874718558,0.3106619138418487,26.46156893391461,3.265190315967005,1.7723765722722509,57.90934419152995,3.3361077251133175
185.4524905,0.8326010521754085,0.310609046505882,26.45503688507372,3.5310477903834663,1.679414578953194,62.62461445945297,3.345592382616497
185.482161,0.8325728953539236,0.3105559711299764,26.448480139449664,3.1656237360562485,1.860978589997388,56.14383717558508,3.353346340104803
185.5120035,0.8325438287443846,0.3105025838866944,26.44188588517516,3.3804777333995784,1.7431049267430083,59.95455904837629,3.3441815370565586
185.5413195,0.8325153162555193,0.3104501344284322,26.4354084580332,3.559347255533732,1.663540843107626,63.12709530436115,3.3501560506234576
185.570933,0.8324872417552014,0.3103971485639133,26.428865786026968,3.1474879381473886,1.8280991428701483,55.82270099471806,3.3350460004000575
185.60068,0.8324581308173779,0.3103439196233435,26.422294111361225,3.44451175743916,1.7183694247854435,61.09079473920147,3.344915364465685
185.6302515,0.8324297746920121,0.3102910005212738,26.415761695040302,3.2673025794305905,1.7915476794326324,57.94804426158429,3.3417113728340997
185.6599605,0.8324009784666105,0.3102378311272589,26.40919939175887,3.322475922779337,1.7550288773902376,58.92676509610644,3.332499790646644
185.688975,0.8323723325158002,0.3101859005525095,26.40279096327154,3.797628494379476,1.5914728724397496,67.35417710508489,3.334935184504701
185.718352,0.8323448558642474,0.3101333170186349,26.396302940247097,3.0256266279943724,1.9110062311512368,53.66222878949306,3.327615770383572
