T(K),Fc,X,m(mol/kg),cp(J/gK),cp_err(%),cpm(J/molK),cp_SMA_1K,std,std_%
183.0,0.834266006890153,0.3149832854473216,26.84445366827431,3.7648992426916523,1.6097843252181412,66.760050612952,3.76397531705575,0.17574619122860652,4.668018448827324
184.0,0.833793536463667,0.31320254444824397,26.73465495196934,3.75768305398225,1.6120560827909387,66.63545880570587,3.7559330248358545,0.1798785173524751,4.786952884752925
185.0,0.8330222605814239,0.3114179699198057,26.555875727780514,3.746475247049398,1.616153801125011,66.44219805630051,3.748271479018385,0.1839091042949772,4.908856783180885
186.0,0.8320514065833999,0.30962896458586003,26.333589161613002,3.7391080602408846,1.6187758045525265,66.31838685900279,3.737827934262873,0.17830781177185645,4.768725827099239
187.0,0.8310797553491003,0.30783493519741156,26.114778356272954,3.718729691174716,1.627030327286021,65.96365488898009,3.7172890432416175,0.18647031107279144,5.014355077093194
188.0,0.8300794989249405,0.3060352908928012,25.893254431525108,3.6930294470930445,1.6376116493808857,65.51467839705198,3.6944176924124665,0.17921294007584146,4.852735204072318
189.0,0.8290780608707327,0.3042294416247227,25.67523996666903,3.6765543256440676,1.6446971463025633,65.2291476898765,3.6794995836995623,0.17642990589714372,4.798784140534529
190.0,0.8280461609337673,0.30241679664133225,25.45444263585944,3.684822284115249,1.641517258197929,65.38279762946155,3.6868396748742325,0.1830862091783323,4.968657782156583
191.0,0.8269979490682924,0.3005967630098679,25.233924763020855,3.729897135256421,1.6261382037794254,66.18980044303886,3.728297583319268,0.21011282540806286,5.633206970294052
192.0,0.8259481843197993,0.2987687441721445,25.01692357553676,3.749967246364029,1.6194172260070117,66.55281140393653,3.750596542002072,0.20690921109005084,5.517627155028358
193.0,0.8248654466132443,0.2969321385221438,24.7970336094018,3.7738093912897175,1.610776559227085,66.98302641951666,3.775414022745162,0.20545871324640602,5.444332024840012
194.0,0.8237792878014104,0.29508633799652173,24.580256443974232,3.815513298528555,1.596147719739183,67.73030644631416,3.8137690531934423,0.19562252827835241,5.127030440538468
195.0,0.8226579444420257,0.29323072666942335,24.360356843243235,3.818338511387522,1.5966819778860477,67.78759136904178,3.8165421561968245,0.189181081188079,4.954539274710185
196.0,0.8215156554487416,0.29136467934340693,24.140452801796467,3.7588787069713976,1.6192871343552422,66.73918925335799,3.7645941661645494,0.1979465988306493,5.266107641715813
197.0,0.8203687239001433,0.2894875601285893,23.923566816817882,3.7488222502775703,1.6234035666216662,66.56769925984662,3.7466054809317084,0.19974676194592203,5.328253745056394
198.0,0.8191836429329588,0.2875987210023984,23.703476184880245,3.7376527977286638,1.6273864834162104,66.37665769160505,3.7378616769685693,0.1990988206401652,5.326840972525743
199.0,0.8179739129940748,0.2856975003424541,23.483051087426766,3.7511994288453767,1.6222433613781118,66.62485164777335,3.751457544082114,0.2074519932174498,5.5302843037941
200.0,0.8167571650472226,0.2837832214252322,23.26540667293356,3.782045137121779,1.6114646246024817,67.1801564297055,3.7804206744427398,0.22097656821395,5.842779771320184
201.0,0.815497244597982,0.28185519088317856,23.044204369012423,3.784906795438084,1.6084393913490702,67.23821283388905,3.7886086227094893,0.21308354474636187,5.62982277405588
202.0,0.8142268911830947,0.27991269711297245,22.825437995148622,3.80654405476764,1.599150623379266,67.62998122408383,3.8062721573467826,0.20866361170859923,5.481707520165205
203.0,0.8129094264809513,0.2779550086275582,22.602955861848496,3.7950448855867815,1.6034973179760015,67.43314199592301,3.794818783853799,0.21864830977498248,5.7614156450530505
204.0,0.8115636695167172,0.27598137234450526,22.380030839585974,3.7416129094196746,1.6222416595780629,66.49133695358337,3.7429592070970936,0.2206985112470619,5.8984859361438415
205.0,0.8101862815041665,0.27399101180313085,22.156478564418393,3.689918339087184,1.6385343785108182,65.5803729689422,3.6944955250254767,0.19926321204392503,5.400206555606837
206.0,0.8087970879694879,0.27198312530269514,21.935444230046198,3.7287077771932937,1.6244521629705824,66.27745208176601,3.7190758104545605,0.20929919503387268,5.61318310633123
207.0,0.8073755198197989,0.26995688395382705,21.713787800279942,3.7218596038705565,1.6258143287742202,66.16349000263091,3.7223349487145603,0.20513354466919986,5.511587391847633
208.0,0.8058768384612117,0.2679114296352212,21.484913724377854,3.7442446323650054,1.6154756731119237,66.56941526505265,3.7443721013977083,0.19534481969072656,5.217202369796533
209.0,0.804382275101975,0.26584587284749067,21.26143019047364,3.779367228653751,1.6012935575453422,67.20173563262573,3.7776516389540498,0.185486220315573,4.907864441149981
210.0,0.8028272262378139,0.2637592904559865,21.033734418797472,3.7895182825694547,1.5957552366986434,67.39011305219846,3.790549846457095,0.18121084129358825,4.781896478164491
211.0,0.8012283515199978,0.2616507233143531,20.804775755829255,3.784720619278987,1.5952342736064309,67.31309673612665,3.7857937052014727,0.17518751214800016,4.628809620863758
212.0,0.7996086197191073,0.25951917376060923,20.577808053635806,3.767109964238509,1.6000096615651926,67.00788904248371,3.7701448235067927,0.18650082584431338,4.95076670484221
213.0,0.7979192390772859,0.25736360297771854,20.34624551152766,3.758076729241003,1.6016006278819612,66.85556206437828,3.756681422215965,0.19519022280238515,5.193886045051736
214.0,0.7962041143504677,0.25518292821087923,20.116492088384753,3.746987887965415,1.603247531018976,66.66671160611192,3.7490506600346034,0.19186913445166123,5.120623289653724
215.0,0.7944122104544473,0.25297601983429524,19.882000396693517,3.7795004357414688,1.590844894259536,67.25380400985115,3.7736803393602543,0.20189414796163072,5.341820999738099
216.0,0.7925677344435708,0.2507416982609224,19.646146911696004,3.772522875422313,1.5915045687504223,67.13839097920358,3.7774555698135925,0.2044485381146014,5.419411488438344
217.0,0.7906917306648675,0.2484787306898044,19.412007207701006,3.8166176753352272,1.5744219423818435,67.93187655102507,3.8147257803426133,0.19982342303495768,5.235615406969116
218.0,0.788755753768126,0.24618582768714417,19.1761825740136,3.831110054132222,1.5673066551487274,68.19864966447766,3.8340198013292364,0.19391857034523807,5.061681016865547
219.0,0.7867256879686512,0.24386163959933677,18.935067510137486,3.866599192306049,1.5537435764121919,68.83969326460303,3.8672026120100402,0.2008916893121883,5.195565387587432
220.0,0.7846268530966403,0.241504752798992,18.691948907805706,3.8720455945538337,1.5497705400537896,68.9460606486312,3.8725341827759237,0.19819238938936046,5.118544824681944
221.0,0.782483474237364,0.23911368576862801,18.45010575778432,3.8772194662627384,1.5456552730479516,69.04743447458534,3.871125997865872,0.19274044573315186,4.971099712313547
222.0,0.780263887057765,0.23668688503148091,18.206179464993685,3.8497178404526604,1.5522108342537513,68.56709280562066,3.8497810567154875,0.19379157413300846,5.033916306713583
223.0,0.7779289499832004,0.23422272094499327,17.956541732869514,3.859713140099507,1.5467907167426442,68.75491833886112,3.855592247306446,0.18915636266407151,4.900788110361873
224.0,0.775508720066085,0.23171948338034123,17.70476786794165,3.848073302589867,1.5484416179887939,68.55768900501351,3.8460128076553244,0.17571608483376128,4.5663393344274175
225.0,0.7730305972663839,0.2291753773212247,17.45427871455746,3.850054186951266,1.5456865154052395,68.60305288226544,3.8501560567094146,0.17261384052405612,4.483413275301028
226.0,0.7704550283813333,0.22658851842753114,17.20136393235485,3.8597565552075026,1.540865068951637,68.78602162467172,3.8647809313011816,0.17498757445136726,4.533642781570711
227.0,0.767732957966154,0.22395692862492655,16.942033985060185,3.898734230346254,1.5265349434022026,69.49116298959348,3.8968679327349487,0.18488693196161998,4.742229683740197
228.0,0.7648960217709789,0.2212785318005776,16.679812627597762,3.901740967198198,1.5234940708676517,69.55546381236998,3.9048985606530078,0.18490992395199377,4.739164529540149
229.0,0.7619765715057281,0.2185511497087317,16.418415522829022,3.919750981118699,1.5172239386916233,69.88746925886528,3.9208417338180506,0.20577208142565598,5.2496212748425295
230.0,0.7588824950792553,0.215772498218633,16.15029151072511,3.933377449404503,1.5116625897821157,70.14168215579403,3.934196160639025,0.20643471753386217,5.24828141182117
231.0,0.755693287699597,0.2129401840720513,15.88286437452409,3.9364285351845054,1.5091920017355431,70.20722065952951,3.938259277288666,0.20683313855186364,5.2543349054390776
232.0,0.7535619630181447,0.21005170235943016,15.706340529593222,3.9290391322281994,1.5107098784536164,70.08290995761512,3.9381808089105803,0.19907622327128163,5.066791563320048
233.0,0.7519165646873307,0.20710443497312434,15.571674083950294,3.9412408514321444,1.5070544931370382,70.30618939274716,3.949581953742237,0.2044407733098103,5.187218467897536
