T(K),X,m,cp(J/gK),cpm(J/molK)
175.112612,0.32896596260593736,28.785002136749068,2.8865438563229744,51.139923523140915
175.140917,0.3289157685813318,28.778457428575773,3.1823235902150304,56.380316482155635
175.169588,0.3288649271052584,28.771829298352348,2.1879189940856882,38.762848445840966
175.197958,0.32881462093846214,28.765271943972948,3.938132313873338,69.77117039434981
175.2261565,0.32876462039399135,28.758755401084258,2.5975761964357305,46.02091539973208
175.25458,0.32871422240018655,28.752188041218428,3.4745393451297684,61.55813494584658
175.2826485,0.32866445533411703,28.74570386511269,3.389295148708167,60.04804270618249
175.3108315,0.3286144867099387,28.73919439503819,3.2917809769177455,58.32055505723852
175.33933100000002,0.32856395839733243,28.732612998924665,2.8139109121195327,49.85426602281663
175.3675065,0.32851400595647023,28.726107584668178,4.138294114259611,73.31867157941923
175.395888,0.32846368972288686,28.719555771312763,2.55886332980035,45.33583146695744
175.424544,0.32841288827555737,28.71294177294666,3.6274497914916726,64.26835396520697
175.4527115,0.32836295423071893,28.706441679470416,3.763582127876956,66.68043359551471
175.4810695,0.32831268384990087,28.6998987801709,3.4444209702624895,61.0259433322703
175.5094775,0.3282623261991171,28.69334550416681,3.9562295106175447,70.09402775911701
175.537802,0.3282121179091515,28.686812643291557,3.9562944664632513,70.09538157572479
175.5661795,0.3281618170000069,28.680268710395147,4.181805212825833,74.091068017347
175.59454549999998,0.32811153778837027,28.6737285794404,4.350708592496809,77.08383450630195
175.62309499999998,0.32806093462869645,28.667147298778804,4.204171405744136,74.48777406097464
175.6516745,0.3280102795931434,28.660560264022088,4.798499814839739,85.01808792304914
175.6799795,0.3279601123521005,28.65403763935557,5.440134129290488,96.38661200439721
175.7080825,0.3279103043599516,28.647562686681546,5.993746780867549,106.19565458745541
175.736544,0.327859862215559,28.641006273353835,5.442807164822307,96.43452955742433
175.7651045,0.32780924584231835,28.634428203065053,6.755238657473247,119.6882681786044
175.79346700000002,0.327758981575844,28.62789687261694,7.06240754143464,125.13100142918614
175.821795,0.32770877962886996,28.621374614776688,8.204584085262097,145.3683873660887
175.850096,0.3276586266899947,28.614859696662602,8.712550659768967,154.3689587825559
175.8782865,0.3276086707071411,28.60837132950121,10.45766987364136,185.28951206036822
175.906351,0.32755893911741685,28.60191306445958,11.279098604189086,199.84420009202466
175.93488150000002,0.32750838287341427,28.595348686893665,11.860671349087397,210.14917700687766
175.963347,0.3274579429180001,28.58880039210481,14.766297872977786,261.6322702700268
175.99170900000001,0.3274076874457245,28.58227702434999,15.950827501685499,282.6208263439707
176.0202275,0.3273571557414054,28.57571878335387,18.84713743490932,333.9393569327323
176.04850199999998,0.32730705742662014,28.569217762330464,22.16611822202816,392.74721034173723
176.076609,0.3272572569156768,28.56275634553065,25.821993410216237,457.52462842728244
176.104758,0.3272073829898309,28.55628636211342,29.606689092332363,524.5849214949617
176.1331735,0.32715703788413003,28.549756226854015,33.6000652929543,595.3431244339088
176.1616385,0.32710660606830716,28.54321582432608,39.576539172881155,701.2393816779072
176.1897795,0.32705674924691586,28.536750955291748,46.50911598918789,824.0770464216098
176.217909,0.3270069137372584,28.53028980697177,51.74419541746083,916.8380299147448
176.24605,0.32695705877569275,28.52382709411446,58.96962289134434,1044.8659580240185
176.2742295,0.3269071365153072,28.517356616597915,63.64208110312948,1127.6591611424794
176.3022295,0.3268575331382699,28.5109284204568,71.90624357311111,1274.0935690619776
176.33032450000002,0.3268077623346784,28.504479479299217,73.35093159932059,1299.695462101776
176.3587325,0.3267574379166538,28.497959774252855,78.44882126193207,1390.0283291928965
176.38696900000002,0.32670741816047655,28.491480505000467,80.94261876899371,1434.2198628385859
176.415396,0.326657061783343,28.48495860419422,80.45592702800796,1425.6003260965706
176.44359450000002,0.32660711099590095,28.478490196957203,83.03529799404657,1471.3084946088147
176.4715905,0.32655751970748265,28.472069292481656,79.24214217160896,1404.1013056323497
176.4995255,0.3265080372426231,28.465663420567044,78.01871800981732,1382.4272465030738
176.5277165,0.3264581020781225,28.459199897511937,70.16597017324258,1243.2866206522065
176.5557505,0.3264084457559288,28.452773417637278,70.60949793755206,1251.1491715944298
176.5836165,0.3263590877319983,28.44638648218995,62.76400238428387,1112.135837146636
176.6119405,0.32630891919115745,28.439895624794065,59.1705847613685,1048.4659310262039
176.640242,0.32625879121409446,28.433410981062,55.292258603855146,979.7472377051536
176.66830700000003,0.32620908281499517,28.426981567471866,53.772383576821554,952.8186516378564
176.6969055,0.32615843017380836,28.42043099893297,46.975522462373696,832.384241359766
176.725569,0.326107663086352,28.413866617898336,49.41925096973012,875.6885287386216
176.75351949999998,0.3260581594614656,28.407466559825497,48.84909811084765,865.5881286490691
176.7815005,0.32600860243445473,28.401060539349036,49.846064577408654,883.2565333937802
176.8096985,0.32595866168874027,28.39460587016999,51.01121442655192,903.9052240854144
176.83803,0.32590848510471343,28.388121682888933,55.134701778761475,976.9751558347004
176.86621300000002,0.3258585721031887,28.38167251532594,60.17172733378323,1066.2332431466837
176.89422050000002,0.32580897047666096,28.37526452595353,66.33890285631635,1175.517954792141
176.92274700000002,0.32575845025165107,28.368738832852248,67.98276573432685,1204.6505309022946
176.95117399999998,0.32570810678361095,28.362236944161513,79.41036032636941,1407.15090653994
176.978796,0.32565918945368755,28.355920171997965,86.73630296189774,1536.970882855977
177.00709,0.32560908254173154,28.34945073730496,87.45080570650967,1549.636378514669
177.035563,0.32555865912703646,28.34294140852088,99.2065467707154,1757.9543106015892
177.063456,0.3255092633124259,28.336565679796365,106.25909528250735,1882.9318501181958
177.0914825,0.3254596315317957,28.330160434406285,111.68704301737502,1979.1218045164496
177.119711,0.32540964247210424,28.323710032962715,117.60242370457335,2083.94980861656
177.14795900000001,0.3253596193072091,28.31725618760482,124.14701844793021,2199.9283130752556
177.17602399999998,0.32530992061661745,28.310845152707884,130.977591316524,2320.9750895308352
177.20409999999998,0.325260202837936,28.304432600451904,133.39753639675448,2363.8642570843667
177.232233,0.3252103844992335,28.298008025867976,136.69848336655173,2422.3654784774594
177.2602025,0.3251608560479803,28.291621775472503,137.25467700874103,2432.228454138303
177.28821,0.3251112606500621,28.285227832148173,132.758830711623,2352.5663099359354
177.316332,0.3250614628277134,28.278808737271213,126.6353303130011,2244.060644364696
177.3446715,0.3250112801812581,28.272340995519414,116.48776285167125,2064.2451038337067
177.37270949999998,0.32496163172204096,28.265943048301427,113.40478135250126,2009.6182559861486
177.4006445,0.3249121659334773,28.25956957680196,101.54728853774448,1799.4996729524198
177.4290905,0.3248617955683734,28.253080513900745,93.52241570250261,1657.2972817575085
177.45743,0.3248116140467755,28.246616741896815,88.77880361154465,1573.2409661187119
177.485617,0.3247617028032035,28.240188736799396,82.23906542486357,1457.3550648211042
177.514052,0.3247113526505967,28.23370516794066,75.35424697907538,1335.3533597269823
177.54220450000003,0.3246615029351396,28.227286992576996,73.63145362359971,1304.8274720743352
177.570479,0.3246114373903372,28.22084198267844,64.89042420376329,1149.9304772015998
177.599017,0.3245609054511478,28.214337901995584,62.7813314677387,1112.5582501600475
177.6272265,0.3245109553497841,28.207909667352144,58.72871148326461,1040.7441055912996
177.6552835,0.32446127542655534,28.201517145700272,56.01213303404,992.6058789682367
177.683596,0.3244111432302689,28.19506738123428,50.22901373731564,890.1242596585777
177.712023,0.32436080841313425,28.188592511506958,48.680111531616454,862.6781768647342
177.7404085,0.3243105471845645,28.1821280704821,44.44980717707361,787.7136789183543
177.768683,0.3242604825896192,28.17568987586417,43.47679930935215,770.4728224335942
177.797232,0.32420993202315795,28.169190154255965,37.86213102662217,670.9745989904163
177.8258765,0.324159212419012,28.162669675213195,38.012318107760045,673.6381126961575
177.85375449999998,0.3241098500669488,28.156324623286203,36.73144763836778,650.9409244162001
177.881724,0.3240603257276281,28.1499596807637,33.306499115847174,590.2469580202768
177.91017,0.3240099576844933,28.14348726074258,30.682593812316952,543.7485396950997
177.9387495,0.32395935325701325,28.136985435987906,29.040586365459074,514.6508342244189
177.967154,0.3239090586766991,28.130524385808574,28.003893467106636,496.28023162873535
177.99533350000002,0.32385916246149526,28.124115461079462,26.725768274036266,473.6308771766923
178.023333,0.32380958491768,28.117748404920803,25.609974339046584,453.85820752496267
178.0513595,0.32375995950462166,28.111376136031843,23.774446327163854,421.3303116144895
178.0797485,0.32370969214938894,28.104922390438922,21.60929709273109,382.9606856179771
178.108183,0.3236593441352186,28.098459250801337,21.066307578553857,373.3388910608774
178.136591,0.3236090429346607,28.09200308143707,19.459592840505064,344.86555627136846
178.16502200000002,0.3235587008842153,28.08554263033244,18.85096804285159,334.0803943485145
178.193358,0.323508526908716,28.079104705188733,17.758427588830678,314.7190977662262
178.22142300000002,0.3234588326355204,28.072729272880395,17.936198614129587,317.8705091188424
178.249842,0.3234085113707328,28.066274356201596,15.00091676517498,265.8513649714365
178.278643,0.32335751351279307,28.059733629664183,15.080539228364824,267.26324727096085
178.3069065,0.32330746720426173,28.053315902468785,15.127367792925153,268.09393508244943
178.33504749999997,0.32325763759474324,28.046926906888064,13.998311379007705,248.08500826500273
178.363192,0.3232078015610268,28.040538028593268,13.698888813368255,242.77919082010584
178.391394,0.323157863468627,28.034137010303603,12.637652736498028,223.97203020437115
178.41973000000002,0.3231076878393204,28.027706495980475,12.168526128283485,215.65851212030455
178.44811099999998,0.3230574322512164,28.021266689680434,11.39699311867079,201.98548898379326
178.47630900000001,0.32300750042181886,28.014869317057574,11.69965138766939,207.35000758249845
178.504614,0.32295737881754477,28.00844857906984,10.154515283544294,179.96646530269908
178.5330715,0.3229069868491048,28.001994164858402,10.321649388860193,182.9290814508099
178.561518,0.3228566140214122,27.99554316238187,9.40271729612748,166.64346643228146
178.5897545,0.32280661271095146,27.989140687426655,10.12111137617978,179.37601364705478
178.6178305,0.32275689525502754,27.982775496312872,9.087973546575206,161.06621882201253
178.6463185,0.3227064478410823,27.976317805820706,8.40318581168553,148.93015416044327
178.6749365,0.3226557698170431,27.96983156383051,8.170657059049596,144.80945656208795
178.7032875,0.32260556419585473,27.963406741308745,8.454491350295976,149.84031673881728
178.73179449999998,0.3225550818914237,27.956947471758976,7.190360195160461,127.43628684818356
178.76018349999998,0.3225048081072712,27.950515839266505,8.300418560841054,147.11051433726252
178.78833600000002,0.3224549526872512,27.944138671562474,7.329903016223983,129.9101839560292
178.81685099999999,0.3224044548408276,27.93768028566511,6.972845897675133,123.58230777176941
178.8450035,0.32235459847179454,27.93130488534808,7.870696819586096,139.4956502458302
178.87314800000001,0.3223047557769725,27.92493217128456,6.7009022236170255,118.76323283597343
178.90162500000002,0.3222543237220639,27.91848505769805,6.725858732313988,119.20589533763832
178.9301475,0.32220381055146874,27.91202853619855,6.24385544112814,110.6634223823926
178.95853649999998,0.32215353326051227,27.905603120049566,6.750322150005161,119.6401684234806
178.986964,0.3221031872226714,27.899169873136394,5.929638591458688,105.09498704482937
179.015448,0.32205274054147137,27.89272472431906,6.3536108975421515,112.60966189718019
179.0437145,0.3220026784755444,27.886329662732603,6.133049366866033,108.70080337535641
179.07196249999998,0.32195264857375433,27.879939653298052,6.139031536815149,108.80714385616865
179.1001265,0.32190276683149477,27.873569506085833,6.12635403849366,108.58276230165829
179.128336,0.3218528038757412,27.867189926919444,5.800370477805014,102.80536499197952
179.156744,0.3218024886992109,27.860766323959066,5.407454907020318,95.84163461151245
179.185488,0.32175157773346386,27.854267628247147,4.825702549133625,85.5309172026303
179.21385049999998,0.32170134179093546,27.847856054295345,6.137808032436858,108.78703477274874
179.2420675,0.3216513628703206,27.841478226207325,4.96418294480989,87.98585680695605
179.270571,0.3216008757783006,27.8350365042968,5.2402678733862595,92.87949413799835
179.299002,0.321550516374055,27.828612029348786,4.9759818199571955,88.19549443203198
179.32737550000002,0.32150025807844296,27.822201403882367,5.251735235850525,93.08328376578241
179.3557075,0.3214500725395862,27.81580100637354,5.0061695975266485,88.73106363790878
179.383738,0.3214004203044465,27.809469555233584,5.8325325878431835,103.3781000669745
179.411608,0.3213510516150502,27.803175179233463,5.1912412932155965,92.01186297289719
179.44003500000002,0.32130069546696327,27.796755848252953,4.423386594760272,78.40229335794763
179.4685005,0.3212502703014956,27.790328673487625,5.030224488912478,89.15844772740591
179.49705,0.321199695497487,27.78388338499305,4.14881818383455,73.53613511061265
179.5255725,0.3211491676714834,27.77744504242663,4.976792783942828,88.21190912537324
179.553824,0.32109911906993804,27.771068708233763,4.70165907039085,83.33550085111466
179.581843,0.32104948149701656,27.76474566876643,5.542735205455569,98.24360492191099
179.610167,0.32099930271692945,27.758354627742275,3.9883850089163975,70.69333822214826
179.639166,0.3209479271766373,27.751812139456494,3.8964388184171583,69.06381466260501
179.66740249999998,0.3208979015857113,27.74544251354701,5.630796059566028,99.80533381241473
179.6954025,0.32084829408294985,27.73912704832445,4.334468917327725,76.82827610117201
179.72365050000002,0.3207982462664522,27.732756462201728,5.0361160298073795,89.2651986898003
179.7515855,0.32074875206557,27.72645726906699,4.994289342924007,88.52407289252376
179.780119,0.3206981964892663,27.72002394092403,3.634855646099159,64.42821827972165
179.808863,0.3206472669381465,27.71354399166828,4.495025417815691,79.67505652369515
179.83685150000002,0.32059767501641784,27.70723516735722,5.289107888585463,93.75056546897873
179.865004,0.3205477915086296,27.70089017807253,4.076927403297196,72.26461561933485
179.893397,0.3204974808280732,27.694491797658504,4.712952741938913,83.53857510793468
179.921721,0.3204472913661736,27.68810977750218,4.169107223074337,73.8989554149154
179.949969,0.32039723552031796,27.68174568664923,4.783095018671285,84.78235904067326
179.978396,0.3203468614066305,27.675342077662506,3.7504126886787454,66.47782601442503
180.0069565,0.3202962496208881,27.668909211455297,4.499159038192587,79.74993932819503
180.0349755,0.3202465963332377,27.662599103297126,5.052252031390922,89.55405728535563
180.0629485,0.32019702347371126,27.656300135768692,4.649177444052302,82.40956515221448
180.09112,0.3201470977241252,27.64995725675699,4.586726194378749,81.30281185236886
180.1194135,0.3200969546249792,27.64358770191567,4.404247838606206,78.0684857184506
180.1476995,0.32004682366107523,27.637220627688095,4.6189393583305955,81.87428514198085
180.176016,0.31999663746959633,27.630847479406025,4.373373222408105,77.52165905290144
180.20430199999998,0.3199465041482907,27.62448198426913,4.651363237998967,82.44950036994214
180.232493,0.3198965380087538,27.61813865019239,4.479190550428844,79.39781688802455
180.2605805,0.3198467541149457,27.611819379603425,4.826357352723243,85.55191673858525
180.2890455,0.3197962998828716,27.60541596405014,3.6150054887198677,64.07970348214334
180.31800700000002,0.31974496431254484,27.598901668072024,3.6955808393676426,65.50817858801203
180.3463695,0.31969468921942173,27.59252289564775,4.906242210511004,86.96871650837234
180.37462449999998,0.31964460340840456,27.586169076248268,3.885658538913138,68.87791043937791
180.40319649999998,0.31959395436702037,27.579744757461405,4.202994433302832,74.50328340928509
180.43129199999998,0.31954414871426506,27.573428346614715,4.943029928811897,87.62158095304746
180.4593375,0.31949443040424036,27.56712393483007,4.2737431168224544,75.75782608729206
180.4873105,0.31944483931892337,27.560836573082668,5.118830780377888,90.73839722300755
180.51557,0.3193947389869661,27.55448557734802,3.6570043871883575,64.82567782974827
180.5439515,0.3193444210016459,27.548107931710994,4.8583363549716045,86.12126961781698
180.57218,0.3192943729025411,27.54176542860203,4.07990990561875,72.32270657774984
180.60105750000002,0.31924317272179137,27.535277889344027,3.4439427708917054,61.049386713774666
180.62949600000002,0.31919274946725135,27.528889747559223,5.140304503214766,91.12037290333647
180.657713,0.31914271753278506,27.522552117473133,4.0103584554242735,71.09042111637142
180.686148,0.31909229762103375,27.51616628386352,4.593135677633417,81.42137471859616
180.71438849999998,0.3190422211460181,27.509824883558302,4.416092260290493,78.2831960196029
180.7425525,0.3189922788749935,27.50350140694155,4.74052650773785,84.03461981360705
180.7708915,0.31894202480967715,27.497139388375334,3.995508847196205,70.82800591692916
180.7994635,0.3188913560512036,27.490725821327953,4.16927507978716,73.90855927834785
180.827761,0.3188411725743287,27.484374620913652,4.579075967015203,81.17331671137826
180.855978,0.3187911303488503,27.478042229035335,4.3523304841350665,77.15402025037214
180.88453099999998,0.318740490686243,27.4716351839052,3.8513222177190682,68.27281632170262
180.91306500000002,0.31868988315005736,27.465233155008224,4.463305766164609,79.12174739576531
180.941103,0.3186401537695475,27.458943142253233,4.958247479563641,87.89591161083379
180.969454,0.31858986766911146,27.452583646433347,3.7120145329067307,65.80386483806367
180.9981865,0.3185389032778492,27.446139327328904,4.094216627906817,72.57947581925812
181.026568,0.31848855985365293,27.439774474235012,4.484147338195617,79.49213177717581
181.054854,0.31843838421160653,27.433431769200347,4.307153760477862,76.35472224788522
181.082991,0.31838847126056463,27.427123197440412,4.824873446264701,85.5328024571888
181.1109335,0.3183389017298774,27.420858945433686,4.74732952680523,84.15838535304032
181.13930349999998,0.31828857216765005,27.41449957798356,3.8911690518083613,68.98098239773688
181.168093,0.3182374966770433,27.408046919022876,3.8385299192086686,68.04801867455883
181.196379,0.31818731274675205,27.401707837566587,4.995029180317856,88.55025993738415
181.2242875,0.3181377968974178,27.395454060606653,4.602515214073596,81.59213230393705
181.252608,0.318087548364417,27.38910867527783,3.9873722976295167,70.68725146624416
181.2809815,0.31803720405849834,27.382752133503057,4.403419070773164,78.06306287753465
181.30921,0.3179871152938271,27.376428788031667,4.2869941641652245,75.99932138511312
181.33754549999998,0.31793683490998137,27.370082186093793,4.115022818195552,72.95084528411851
181.3661025,0.317886159685594,27.363686692417893,3.670046351600532,65.06252271429106
181.3944575,0.31783584111760815,27.357337150936164,4.571311872061239,81.04037840684533
181.422705,0.31778571152231877,27.35101238670885,3.860214739962203,68.43422105010848
181.4512235,0.31773509916254083,27.34462765581863,3.819388101810726,67.71064039737117
181.47930000000002,0.317685269416302,27.338342576692863,4.768144063271921,84.5305600470155
181.507319,0.31763553991330806,27.332071056523898,3.859248292871895,68.41767997614126
