T(K),X,m,cp(J/gK),cpm(J/molK)
175.1109525,0.3289689054909661,28.785385884595918,2.1794252035449784,38.612134394648116
175.139559,0.32891817672391427,28.778771399577256,2.191606463742243,38.828059235888645
175.167845,0.32886801787276554,28.77223220860477,2.2960071695071567,40.677814086295825
175.1964135,0.3288173596326297,28.76562890449273,2.190532934801635,38.80926549100052
175.224894,0.3287668589805386,28.75904713405224,2.3758292579811022,42.09224865834761
175.25313,0.32871679337328275,28.752523040715044,2.30254434832712,40.79398752381172
175.28148099999999,0.32866652534983914,28.745973549341837,2.417204670982186,42.82553912116219
175.3096985,0.3286164954976187,28.739456063423464,2.40328361183093,42.579023011141764
175.3379045,0.3285664874818858,28.73294239281269,2.5052921646397337,44.38643856313961
175.36636950000002,0.3285160217202713,28.726370083200575,2.4392649122260277,43.21675484276117
175.3947775,0.3284656584496967,28.719812106118376,2.6133341417364213,46.30089516099714
175.4228615,0.32841587097734837,28.713330072515816,2.6093318109314585,46.23011791467752
175.4512125,0.3283656115543783,28.706787568460438,2.660386544616322,47.13480272584324
175.4796015,0.328315286147921,28.700237456052708,2.7138423105696754,48.08203283855556
175.5079255,0.32826507732835697,28.693703496075177,2.80018479703088,49.61193460214735
175.5360935,0.32821514637548915,28.68720666507128,2.8819450714595796,51.06065938565851
175.56412749999998,0.3281654542552065,28.680741868855776,2.975688773143349,52.721707927818
175.592421,0.3281153034552078,28.67421836932557,2.971432007420006,52.64644103227787
175.6208595,0.3280648969405353,28.66766258826599,3.1079688843653646,55.065697566207334
175.64924050000002,0.3280145936267113,28.661121209821278,3.1689699381649055,56.146651702395665
175.67767550000002,0.32796419587104314,28.654568532312,3.298230061857343,58.43700520079675
175.7060075,0.3279139819181451,28.64804073006032,3.4239064184626247,60.663875123863725
175.73444999999998,0.3278635733572553,28.641488609850008,3.515023884643031,62.27845152067919
175.76271300000002,0.32781348413367517,28.634978970594915,3.755223188871942,66.5344443078438
175.790705,0.3277638763638592,28.628532857633942,3.897776337345248,69.0603757851614
175.81877,0.3277141403783975,28.622071039131626,4.060995561928442,71.95248257512536
175.84687300000002,0.3276643381942357,28.615601577870173,4.241759183020623,75.15545772765337
175.87512850000002,0.3276142668979938,28.60909812423866,4.392511228639504,77.82670608662823
175.903613,0.3275637909315033,28.602543090770034,4.575338950734209,81.0662916432168
175.9320475,0.327513404691071,28.59600069092861,4.858741783782513,86.08790020334973
175.96029149999998,0.3274633571137277,28.589503235233423,5.133744055820759,90.9606933630641
175.9882915,0.32741374295891496,28.583063003304016,5.496259069295692,97.38408476559081
176.0165925,0.3273635965097529,28.576554641609132,5.58759562171726,99.00269481748107
176.04528249999998,0.3273127618617353,28.569957951004948,5.957211406728021,105.55196757010528
176.073141,0.3272634015289061,28.563553532747314,6.684026404620829,118.43026852892119
176.10078249999998,0.3272144266538386,28.55720005573921,6.806914529688107,120.6079903965944
176.129313,0.3271638776589322,28.550643339235258,7.011507263039307,124.23341913427015
176.157908,0.32711321538842714,28.54407291816791,7.6048438125477125,134.74684880802943
176.18584299999998,0.32706372340488077,28.53765522763509,8.261420342441811,146.38085442264938
176.213927,0.32701396837435776,28.531204378919078,8.388770313006948,148.63774489429196
176.24206800000002,0.3269641132832573,28.52474151378338,9.119460936432814,161.58506607973257
176.270125,0.326914407912646,28.51829901045768,9.315327538604507,165.05604233977203
176.29828500000002,0.3268645209612338,28.511833928418344,9.947409960034943,176.25626540759467
176.326487,0.32681456048488655,28.50536027826039,10.187948697249672,180.51884564050366
176.35447549999998,0.3267649790839681,28.49893669686964,11.076682972730135,196.26676579885674
176.382464,0.32671539851967446,28.49251416992379,11.151353003483004,197.59040241216712
176.4107765,0.3266652448371173,28.486018365149107,11.822842366523743,209.4891029430687
176.439089,0.32661509197887245,28.47952363472845,12.190704534860084,216.00788237977346
176.46728000000002,0.32656515514930934,28.473057840868925,13.021146276924235,230.72319774605182
176.49527999999998,0.32651555743009597,28.4666369039285,13.472078981377436,238.7140092710159
176.523314,0.3264659002461085,28.460209216010533,14.128141275655702,250.3396030921402
176.551207,0.32641649355868246,28.453814893231208,14.776724331037052,261.83273307030055
176.57916849999998,0.326366966263654,28.44740590255211,15.22345090643743,269.74917122888894
176.6074505,0.32631687200121845,28.440924503058863,15.598005714171807,276.38682546763164
176.63564150000002,0.3262669396305468,28.434465008940126,16.531635536237445,292.93100064538135
176.663737,0.3262171770995134,28.42802843861727,16.906989445883738,299.5829140602902
176.691981,0.3261671522235103,28.421558893307925,17.564064148776712,311.2268281870483
176.7203315,0.3261169393849917,28.415066005390084,17.980236913803537,318.6021333414338
176.7482015,0.3260675782174068,28.40868418782149,19.46092473626114,344.8402719103013
176.775984,0.3260183726354046,28.40232341600621,19.306583075852203,342.10636639886224
176.803858,0.3259690055972153,28.395942706133955,20.57866410310772,364.6482661008761
176.83145000000002,0.3259201385797167,28.38962754458679,20.939998463817677,371.0520571414354
176.85957200000001,0.32587033347689753,28.383192094890273,20.9814826566363,371.78821546161254
176.88761,0.32582067770394374,28.376776887070154,22.29679659819213,395.0964805387471
176.91587700000002,0.3257706169213996,28.37031031113421,21.799874796651302,386.29220272885556
176.94399900000002,0.3257208134692899,28.363877928535533,23.763426061772616,421.08739825451585
176.9715865,0.32567195710949703,28.357568791196858,23.85054482270651,422.6323314761077
176.9994415,0.3256226275098847,28.351199468819694,24.477014433341175,433.7346245282159
177.0269305,0.32557394654531135,28.34491481012675,25.701310031535886,455.4305174417032
177.05456800000002,0.3255250030546042,28.338597174156096,25.32856349363966,448.826667569894
177.08277750000002,0.3254750470607984,28.33214978953489,25.7096245206154,455.58044935573633
177.1109945,0.32542507823149786,28.325701703645137,26.34668589225881,466.8706683416166
177.13900999999998,0.3253754666600856,28.31930066407471,27.079394605716267,479.85584512105083
177.16701,0.3253258829462254,28.31290415936941,27.31012080281373,483.94577344172706
177.194983,0.3252763474386621,28.306514812231267,28.03112999049983,496.7237504886093
177.222613,0.32522741969810676,28.300204778938085,28.881554523493904,511.7950850458755
177.2502885,0.3251784117406477,28.29388531762737,28.755870516285597,509.56934376869617
177.278231,0.3251289313238914,28.287505864928416,29.09339727072296,515.5519685931379
177.3061545,0.32507948488470934,28.281131727348455,29.5407035664404,523.4799895736973
177.33391799999998,0.3250303220854666,28.27479507965999,30.15221329330512,534.3178441806228
177.3618225,0.3249809099089861,28.26842721951564,29.898918255997824,529.8307924387582
177.39000149999998,0.32493101195046054,28.261997701521164,30.170789697201645,534.6500923480227
177.417563,0.32488220769879467,28.255710030686735,31.90073532725189,565.3076786026971
177.44488,0.3248338366412693,28.249479067137276,31.268291684639927,554.1017943897893
177.47288,0.32478425641635894,28.243093270047428,30.846447675905804,546.6279080276282
177.500594,0.32473518284458563,28.236773651901828,32.46120609797784,575.2445655017845
177.5283305,0.32468606964285684,28.23044984985054,31.279283721406173,554.3013058133524
177.556357,0.32463644313597523,28.224060888989428,32.248308899007704,571.4750709105832
177.58445999999998,0.32458668135721497,28.217655455815475,31.564519134912526,559.3591783132922
177.612563,0.3245369197502841,28.211250988539213,32.69989555675888,579.481002477223
177.6401545,0.324488064002188,28.204964025959423,33.2093390775185,588.5106048102293
177.667872,0.3244389852860798,28.198649286486045,32.822852232832844,581.6632254356465
177.695956,0.32438925774328964,28.19225200110043,32.730887782246526,580.0351600074117
177.72376500000001,0.32434001724564876,28.185918300348572,33.893072982037005,600.6323432733298
177.751307,0.3242912496102742,28.179646332716015,33.768088836291504,598.4191332513119
177.7790015,0.3242422120286164,28.17334056029465,33.91330968486697,600.9943549707559
177.80670750000002,0.32419315415032324,28.16703309359789,34.16025447026302,605.3722967074482
177.83449000000002,0.3241439608684609,28.160709137266856,34.1848368233416,605.8096521715329
177.8621655,0.32409495708419594,28.154410456688122,34.96093723474861,619.5651357954814
177.889727,0.3240461551774903,28.148138631975186,35.062572687035804,621.3680310918917
177.9173685,0.3239972116270598,28.14184951327637,35.40533654854309,627.444156504151
177.9452235,0.32394789003626495,28.135512738568956,35.2198894218208,624.1594857754691
177.97332649999998,0.3238981293026543,28.129120480274906,35.510863781887636,629.3178778615808
178.001273,0.32384864564160903,28.12276474771274,36.39929328821905,645.0643246518847
178.029311,0.3237989999156046,28.116389134145894,36.0558424640555,638.9795554671903
178.05708950000002,0.3237498136117552,28.110073443739893,37.92587231238694,672.1220224176506
178.084811,0.3237007281579713,28.103771618668063,36.99633236641359,655.650578092178
178.1129215,0.32365095382221115,28.09738228568187,37.6414746195928,667.0857310069059
178.140509,0.3236021054391983,28.09111272782828,39.24294951442727,695.4691775038539
178.16772650000001,0.3235539120876309,28.08492812884794,39.463379986466045,699.3776212655141
178.1956045,0.32350454907073145,28.07859434153938,38.12538832744508,675.6673983816974
178.2234445,0.32345525318965956,28.072270090838984,40.318746991564666,714.5406646036138
178.251162,0.32340617405435274,28.065974562300756,39.15379405105789,693.8969902947771
178.2792875,0.32335637229597025,28.05958727426245,39.79680510896608,705.2946783406056
178.307028,0.3233072520632054,28.053288315737703,40.93038923044112,725.3865576329744
178.33462,0.32325839457582883,28.047023957580585,40.86055119293285,724.150896742941
178.3627575,0.3232085709407367,28.04063665435851,39.93123921730399,707.6832031897877
178.390761,0.32315898434269785,28.034280672538273,41.860610438494405,741.8786933854814
178.418276,0.3231102624987984,28.028036441425762,41.93737217224629,743.241198401826
178.4461235,0.3230609516214016,28.0217176345088,41.38739878298345,733.4963000903747
178.47394400000002,0.3230116882754935,28.015405837559406,42.544312726740664,754.0020761488064
178.5017455,0.3229624582814685,28.00909923137233,41.93896439414424,743.2757506754558
178.5294635,0.32291337584130764,28.002812440535966,43.28981930368045,767.2188490497091
178.55721899999998,0.32286422667743864,27.996518016563147,42.26755397221087,749.1035195741798
178.584837,0.3228153206658592,27.99025563947535,44.17279633191578,782.8721417202195
178.61233349999998,0.32276662946456985,27.984021667197094,43.041133777336874,762.8178873092899
178.640223,0.32271724197032087,27.977699463654762,43.2828845302944,767.1046194263433
178.6682725,0.3226675707607032,27.971341870996856,42.89219059323989,760.1825091653509
178.6961315,0.32261823650184773,27.96502832876718,44.228965729038094,783.8765358411935
178.72380700000002,0.3225692267915897,27.95875723110132,43.77817125391144,775.8892306603208
178.752005,0.32251929137386315,27.95236861658412,42.87183150303876,759.828178600584
178.77988299999998,0.32246992220040627,27.94605337171786,45.09715163393197,799.2703580836543
178.80731450000002,0.32242134329427735,27.93984011518446,44.520192775493264,789.0469529032172
178.8348985,0.3223724938695774,27.933593157553364,44.80861138074801,794.1609333459346
178.862765,0.3223231436801985,27.92728307568256,43.804420640613586,776.3654682801148
178.89033,0.3222743269478016,27.92104210754304,45.99654260789535,815.2197271760505
178.9179785,0.32222536184161577,27.914783073692345,43.67719138847472,774.1148909046532
178.94613850000002,0.32217549034916404,27.90840910928871,44.40925698019044,787.0919551520159
178.97379899999999,0.32212650294181555,27.902149050913593,45.39245620028552,804.520058049546
179.00134500000001,0.32207771777917693,27.895915736337248,44.84749361354044,794.8635668664302
179.02934900000002,0.3220281209146866,27.889579629624006,43.94240172439317,778.8242157729244
179.057349,0.32197853055171366,27.88324528027624,44.87251587553782,795.311601763567
179.08512000000002,0.32192934517739646,27.87696357673652,44.66011686265944,791.5493281536149
179.112616,0.3218806462648258,27.87074489936918,45.75317827886987,810.9248642751805
179.140276,0.32183165627902943,27.864489954132644,44.06501710201583,781.0062662212196
179.1682685,0.32178207675085935,27.858160657291617,44.55291476035155,789.6559981670603
179.1960205,0.32173292254467245,27.851886570271247,44.72575561447257,792.7216763822297
179.223898,0.32168354539302346,27.84558494179115,44.0086671073434,780.0141818557615
179.251917,0.32163391693271726,27.83925216509362,44.10628385812506,781.7465879202429
179.27961549999998,0.321584855470615,27.83299265019453,44.86895858349149,795.2666018840322
179.3074095,0.32153562415371356,27.826712374331432,43.59808470697266,772.7435664650293
179.335116,0.32148654711450303,27.82045268624602,44.9228344633082,796.2260215657521
179.362822,0.32143747023785396,27.814193924354495,43.34757273609961,768.3077759251728
179.3909285,0.32138768318466343,27.80784551882996,43.34588447173163,768.280057637503
179.41872999999998,0.32133843563967956,27.80156682299023,44.016649442801594,780.1711833271844
179.4466615,0.32128895703751714,27.79525958666996,42.62661396994833,755.5357152967288
179.474547,0.32123955913174357,27.78896355433311,43.81794346825155,776.6536549626994
179.50241699999998,0.32119018788159714,27.78267183500119,42.30919107358504,749.9138209079179
179.5304285,0.32114056514459194,27.776348989119295,42.97003755123834,761.6292443587784
179.55819200000002,0.3210913809158052,27.77008292930099,42.655893088834524,756.0632847543905
179.586108,0.32104192568263623,27.76378325893773,42.05175909537804,745.3573106444588
179.614146,0.3209922534514876,27.757456870812515,41.81108701568791,741.0935780725077
179.64247749999998,0.32094206035850864,27.75106508447561,40.694162763570134,721.2983948842407
179.670195,0.32089295416409136,27.744812622457484,43.210399319956025,765.9005072583044
179.6975235,0.32084453627728154,27.738648684671737,41.29743468036832,731.9954212913967
179.72542049999998,0.3207951102736083,27.73235731295719,40.85093299085532,724.0832593494637
179.753241,0.32074581888232717,27.72608398772661,40.92173569198051,725.3402991069588
179.78122150000002,0.32069624306284167,27.719775381562204,39.75587069003316,704.6772836505792
179.8091455,0.3206467663903991,27.713480310006407,40.42182446497403,716.4834328197117
179.8372025,0.32059705308455966,27.707156054294103,38.70937497747143,686.1319526171031
179.86517550000002,0.32054748762411145,27.700851527992054,39.94290889803911,707.9986281985697
179.893187,0.3204978529392173,27.694539118299964,37.87592310244577,671.3626790371013
179.9213585,0.3204479337143049,27.68819145161598,38.69417375817081,685.8684035909165
179.94898849999998,0.32039897299764536,27.681966573484967,38.56910428351063,683.6534308769241
179.97689300000002,0.3203495248276343,27.675680630703937,37.09444936661938,657.5164327721893
180.005179,0.32029939954398867,27.66930954546155,36.641422816448454,649.4882023733961
180.0331825,0.3202497737934384,27.66300287810477,36.93462457749957,654.6872283539736
180.06086950000002,0.32020070784905175,27.65676825873478,36.51611305829999,647.2707043912827
180.088774,0.32015125536646494,27.650485434044313,35.34895767796358,626.5839391049973
180.1168235,0.3201015447952255,27.644170740912507,35.08038690620661,621.8251242639886
180.145026,0.3200515619253357,27.637822388832543,33.89005217047948,600.7273145942854
180.1731095,0.320001788802128,27.631501604192767,34.240104444907026,606.9340025480448
180.2006245,0.3199530221147581,27.625309526146882,34.11830982760746,604.7767929288557
180.22838050000001,0.3199038271385139,27.61906396649987,32.418559797305065,574.6488710538936
180.257029,0.3198530490635621,27.612618371749026,30.748784261540834,545.05215510135
180.285742,0.31980215540316403,27.60615907061833,30.94383709619384,548.5112657839252
180.3135895,0.3197527946161623,27.599895241392787,31.300427239138894,554.8337706803359
180.34162,0.3197031082259145,27.593591011467783,29.1080962307886,515.9738211109567
180.369944,0.319652900316324,27.58722154630692,29.09033126671994,515.6604095002917
180.39817299999999,0.3196028595257211,27.580874217503343,27.720057148898064,491.37210303884683
180.42631749999998,0.31955296723905885,27.574546654826126,27.563054954926447,488.5904512325411
180.4540885,0.3195037357895797,27.568303811961894,26.675324256528175,472.8556295114695
180.482077,0.31945411747026287,27.562012825586482,25.234765824899206,447.32109321093213
180.51036299999998,0.31940397040627116,27.55565573294906,24.099679898336017,427.20136159452966
180.5387825,0.31935358530138863,27.549269407514515,22.92193079991408,406.32525118463695
180.566946,0.319303652697117,27.54294136938553,22.408736366877225,397.2292613377315
180.5951865,0.31925358219839656,27.536596787843884,20.733059609107585,367.52637850376385
180.62369,0.31920304398723015,27.530193887435182,19.95402510478407,353.7177862533404
180.6521745,0.3191525380318303,27.52379602329055,18.824138336467932,333.6896636149679
180.6804795,0.3191023489157935,27.517439235129316,18.324884906213796,324.84049261649744
180.7085555,0.3190525644270378,27.51113462147765,17.35236763573918,307.60181334224023
180.736899,0.319002304152404,27.504770690257605,16.297057534964903,288.895387546537
180.76559300000002,0.3189514208492524,27.49832882830646,15.34708951069639,272.0562510364462
180.7944205,0.31890029927238855,27.4918577700189,14.659444669191886,259.8672085836456
180.8228285,0.3188499200988433,27.485481636710507,14.390310657662946,255.09702482027032
180.8511985,0.31879960679302716,27.479114781075417,13.378433230895817,237.160162321473
180.87974400000002,0.318748980693803,27.472709292484662,12.943504838605287,229.45083428483153
180.9080985,0.3186986917842168,27.46634740942318,12.37396292098749,219.35514229056457
180.93648000000002,0.3186483534234491,27.459980210952747,11.798954754771604,209.16249105061206
180.964972,0.3185978174873546,27.453588967869983,11.233255602408327,199.13480620329528
180.993521,0.31854717883973416,27.44718568576497,10.768040777966501,190.88838073257156
181.0217615,0.318497085791368,27.44085233121615,10.555993456865984,187.12989276571622
181.0500285,0.31844694412845687,27.434513762580973,9.883135081048113,175.20239668538053
181.0786765,0.31839612496869324,27.428090500963027,9.444458907583899,167.42629432344432
181.10752300000001,0.31834495198653123,27.421623485911844,8.983150024863228,159.2489279633969
181.1359005,0.3182946093198697,27.41526234986446,9.033450872974793,160.14110169119755
181.164385,0.3182440751424269,27.408877959949844,8.236479514041491,146.01316417015536
181.1931555,0.3181930318416397,27.402430209126653,8.184845579034455,145.09824437315172
181.2212165,0.31814324561178836,27.396142180524684,8.06047760705343,142.89390001167055
181.2497925,0.3180925439306261,27.389739473572497,7.321221463797741,129.78895247561877
181.27868899999999,0.31804127180346203,27.383265697762635,7.332632230269455,129.99162410939851
181.3070245,0.31799099331612135,27.376918327219467,7.135041059099522,126.48912888027408
181.335482,0.31794049658052137,27.37054434598941,6.800800606544195,120.5641062195319
181.364123,0.31788967242419813,27.36412998881126,6.596797278577954,116.94789241355069
181.39280200000002,0.3178387790048674,27.357707847919514,6.366882514519467,112.87229909444902
181.42150750000002,0.3177878367094471,27.351280499021335,6.192536269679368,109.78180556741499
