T(K),X,m,cp(J/gK),cpm(J/molK)
180.1955435,0.3199620275981429,27.626452917231557,4.106246734740821,72.78676624378593
180.223963,0.3199116568317336,27.620057926563288,4.029609558202564,71.42851356644042
180.2522795,0.3198614674082506,27.61368690100975,4.211449130447504,74.65200221284917
180.2809165,0.3198107086686994,27.60724456296117,3.632074705305629,64.3822194892974
180.3092215,0.3197605371477366,27.600877699965945,4.581507091412924,81.21210937468965
180.3371755,0.3197109865542422,27.59459055562095,3.99924958224043,70.89117526101406
180.3656215,0.3196605625828248,27.58819353434411,3.935646352094649,69.76393959184725
180.3939345,0.3196103730830366,27.581827200805584,4.108825244243372,72.83394893494156
180.422232,0.3195602097623339,27.575465126409103,3.881644324463934,68.80708845030888
180.450842,0.3195094911360235,27.569033577758585,3.631967977918844,64.38144549968439
180.4793725,0.3194589120945401,27.562620684331897,3.9463161833168177,69.95388796740984
180.5074945,0.3194090559111933,27.55630037458582,4.106005651126912,72.78481283060013
180.5358185,0.3193588402593689,27.54993543067128,3.67374146575347,65.1225014474951
180.5642,0.3193085212903032,27.543558333073538,4.022864418259683,71.31142902063787
180.5924475,0.319258438515114,27.537212105281046,3.821220251081508,67.73717307967094
180.620764,0.3192082320055783,27.530851135707923,3.949413758546116,70.00980837560085
180.6491265,0.319157942518941,27.524480593724142,3.781529188537632,67.03397452879967
180.6776945,0.3191072872126503,27.518064661979643,3.717956557035364,65.90723499268456
180.706541,0.3190561365950059,27.51158696338377,3.4437633574252344,61.04686447321747
180.7351055,0.3190054845301691,27.505173360283703,4.045736594609137,71.71812608736944
180.763079,0.3189558790066555,27.498893195693693,4.174671748431855,74.00395055608881
180.79143,0.3189056025818318,27.492529027010637,3.5741319166541863,63.358430099288725
180.8201125,0.3188547367597125,27.486091206405813,3.7382635553096657,66.26817647511494
180.848391,0.3188045858745018,27.479744812886903,4.043975749378808,71.68774200561184
180.8766885,0.3187543997678886,27.47339489762324,3.694609585688087,65.4947015949204
180.904963,0.3187042529137427,27.467050883277345,4.057726829344386,71.93192402452476
180.933184,0.3186541993981236,27.460719608298685,3.752887071723179,66.52817646682176
180.9616415,0.3186037248399329,27.454336017522294,3.7745488366039295,66.91237355855847
180.989775,0.3185538233811641,27.448025837080444,4.125321372544319,73.13081659403743
181.017878,0.3185039744454246,27.44172322097134,3.805115800468018,67.45462962679119
181.046332,0.3184535012889946,27.43534262129401,3.7190151273933703,65.928484435269
181.0749915,0.3184026619449556,27.42891668504372,3.580833367489032,63.47906653851522
181.103697,0.3183517393151721,27.422481182619613,3.6734620448995177,65.1213284967776
181.132094,0.3183013622797711,27.416115577409727,3.9388867804013534,69.82685042515016
181.160029,0.3182518032055982,27.409854247150605,4.219489720292265,74.80146945777813
181.1880975,0.3182020056399163,27.40356370253525,3.782204234675295,67.04963522611664
181.216494,0.3181516244567131,27.39720036904685,3.820199193402136,67.72339364329596
181.244799,0.3181014038991946,27.39085825898944,3.87091549331034,68.62267627320477
181.273211,0.3180509917602075,27.384492894491707,3.653521951078443,64.76896306156765
181.301165,0.3180013905518786,27.37823084182101,4.447448637999418,78.84377429302586
181.329596,0.3179509412067152,27.371862647877517,3.132646048457013,55.53529141885164
181.3581605,0.3179002531766876,27.365465273573157,4.2619988380930565,75.55658550154703
181.386088,0.3178506937560982,27.359211261126497,3.871530558997296,68.63457180429633
181.4146335,0.3178000358419475,27.35281956645588,3.531001916552626,62.597855938225926
181.4435485,0.3177487203224644,27.3463458670538,3.4156808932586618,60.55361564148073
181.4720635,0.3176981128195345,27.339962441048417,3.9867251231256655,70.67736491877052
181.500094,0.3176483633730901,27.333688169747195,3.991430885848772,70.76099240919677
181.528048,0.3175987478921345,27.32743170496726,4.09058855201039,72.5190893949835
181.556582,0.3175481010932818,27.321046130258367,3.2972020163794005,58.45388328085678
181.5851195,0.3174974461707131,27.31466047925007,4.065942107099335,72.08257124383172
181.6132375,0.3174475339897605,27.308369386655624,3.810088086377765,67.5468879715889
181.6417335,0.3173969489004797,27.301994417223536,3.619615999817326,64.17030360634402
181.670069,0.3173466467928759,27.29565604733154,4.023178735539916,71.32506581405345
181.6983165,0.317296498973932,27.28933804848293,3.770267039376864,66.84150509947851
181.7264045,0.3172466323892087,27.283056401947103,4.239099451412447,75.15345703858301
181.754515,0.3171967239217673,27.276770398165315,3.762909471262121,66.71144944636626
181.7830295,0.3171460961834018,27.27039474056782,3.7637819913382415,66.72711278870615
181.8115065,0.3170955330084168,27.26402815709536,3.778643897625463,66.9907908882897
181.8401855,0.3170446091135818,27.257617106967164,3.54591223076574,62.86492413302761
181.86848300000003,0.3169943605963025,27.25129202037845,4.283480511441583,75.94137691728592
181.896342,0.3169448887468806,27.24506560683565,4.075730370895074,72.25840248511352
181.9241625,0.3168954832851651,27.23884844874245,4.346889596882989,77.06598912400264
181.9525285,0.3168451070375742,27.232510053372284,3.436393531708899,60.92398473527185
181.981608,0.316793461493804,27.226012924095915,3.5349207593208662,62.67096519313693
182.010115,0.316742830575241,27.219644390471267,4.170880279699385,73.94617118549256
182.0382405,0.3166928751419121,27.21336174671051,4.011411517879535,71.11913000025697
182.0665265,0.316642632524994,27.207043911808785,3.965789737357607,70.31049577745789
182.0947095,0.3165925707425081,27.200749740147543,4.140053468760959,73.4002736084404
182.1229805,0.3165423505068384,27.1944365729232,3.903563282445091,69.20766710903764
182.1512015,0.3164922169412638,27.188135226274948,4.224336331940979,74.8949834258191
182.179373,0.3164421691551561,27.181845583285536,3.946248028052107,69.96484416236277
182.207537,0.3163921325266748,27.175558263143035,4.240142098680428,75.17564394054259
182.2359795,0.3163415988981728,27.1692094268742,3.669180290174591,65.05296000978423
182.26459,0.3162907645278826,27.16282375354197,4.0342394656624965,71.52550890029852
182.292952,0.3162403694372721,27.156494198529742,3.9828966058089232,70.61542490256554
182.3218215,0.3161890702804363,27.150052052224712,3.472589480743384,61.56803225108376
182.3503365,0.3161383987406303,27.14368967088116,4.401917857697017,78.04499022578092
182.3782335,0.3160888231640836,27.13746581246444,4.1986386740250685,74.44110978496543
182.4065805,0.3160384456213841,27.13114219720224,3.859829077312688,68.4342751594257
182.4353815,0.3159872588799181,27.12471796171065,3.634814572132741,64.4449869135815
182.463736,0.3159368633434127,27.118393966312755,4.363821997579146,77.3704580330892
182.491873,0.31588685206938,27.112119112032588,3.839879208203061,68.08116132609443
182.5201895,0.3158365194128594,27.105804860504627,4.094634995639153,72.59819885520244
182.54859,0.315786035078793,27.099472514159796,3.715073482568784,65.8687351715441
182.5769525,0.3157356159130059,27.09314927457632,4.053755763127198,71.87382481936743
182.605269,0.3156852761335457,27.086836920674884,3.7020048496027775,65.63740775408881
182.6338525,0.3156344592612115,27.0804656836157,3.673953597245226,65.14024328874838
182.6625125,0.3155835039161948,27.074078035328355,3.5621214953130886,63.15761374785555
182.691199,0.3155324989671083,27.067685121234742,3.61232645655721,64.04795288162602
182.71966,0.3154818924847158,27.061343092160485,3.806483993491914,67.49063835005848
182.7476825,0.3154320632765393,27.055099387643548,4.152959309105333,73.63400980362825
182.775694,0.3153822512128784,27.04885873978484,3.803397162823989,67.43629471924439
182.804297,0.3153313847954003,27.042486935497475,3.4975313176477227,62.01330916308772
182.832831,0.315280638547657,27.036131127669865,3.9425011027540022,69.90309236766603
182.8613455,0.3152299244341318,27.02978028567691,3.5808136560573325,63.49032575618314
182.8900055,0.3151789489649855,27.023397662466195,3.826498519892934,67.84668920536582
182.9182075,0.3151287855701423,27.01711764637854,4.152562783987261,73.6282660525803
182.946722,0.3150780637533452,27.010768656079808,3.4954939838674357,61.97809080988031
182.9753705,0.3150271009570243,27.004390448695677,4.015802100239687,71.20380677598969
183.003584,0.314976909402132,26.99810969299476,4.02330843210398,71.33710717380085
183.0320835,0.3149262064428597,26.991765876770916,3.695843190522628,65.53102666457987
183.060656,0.3148753709602129,26.985406422221708,4.019580366369886,71.27142204151173
183.0887895,0.3148253139288359,26.9791452730362,4.305419187770388,76.33986764774323
183.1172775,0.3147746234975976,26.97280583021137,3.648079377151365,64.68469113009498
183.146006,0.3147235024160607,26.96641347928447,4.032451707396051,71.50027031892621
183.174349,0.3146730646297624,26.960107504501767,4.13236981228363,73.27215274286739
183.2027875,0.3146224542023729,26.953780878198742,3.9140104830766864,69.40056756919708
183.2313445,0.3145716301575906,26.947428488568875,3.9414510806303182,69.8873302393054
183.2598405,0.314520911936552,26.94109026466544,3.97749350511035,70.52661795812611
183.288119,0.314470578109926,26.934801005507296,4.209212901113728,74.63554896203097
183.316466,0.3144201196246866,26.9284970970595,3.888085783264866,68.94169229678235
183.345,0.3143693254964183,26.9221521930057,3.997511036721913,70.88217644776212
183.373507,0.3143185766348269,26.915813882182626,3.989984101241466,70.74891890990189
183.402079,0.3142677092396062,26.90946170847355,3.949230008379613,70.02648771007944
183.430842,0.3142164989378038,26.90306766546286,3.7493811599368434,66.4830278230657
183.459559,0.3141653676536706,26.896684441141584,4.006744241943247,71.04673076303128
183.4876085,0.3141154220752122,26.89045015906026,4.589985221866403,81.38886915185702
183.5160775,0.3140647266887794,26.88412321325266,3.5716505864636066,63.33211053970189
183.5446495,0.3140138450007008,26.877773956708264,4.510512569820967,79.98014120348006
183.572775,0.3139637556116573,26.871524486901656,4.118245265707911,73.02469142406689
183.6010155,0.3139134585691491,26.8652500271293,4.397269114690888,77.97256602699782
183.6296185,0.3138625129830018,26.85889560054163,3.706796908069581,65.72927597319368
183.6581255,0.313811735445291,26.85256307347819,4.463160325195196,79.14141572396237
183.6864035,0.3137613628960309,26.84628197896188,3.9280380380057744,69.6527507530093
183.7148725,0.3137106471672085,26.83995902391166,4.195634914709868,74.39804914939604
183.7433035,0.3136599961703187,26.83364507193493,3.870216767323461,68.62785335927411
183.77199,0.3136088869748846,26.827274947284785,3.74876160226767,66.4743694398075
183.8003065,0.3135584340048218,26.820987543341744,4.242614186639599,75.2317572254802
183.828909,0.3135074684303953,26.814637197404974,3.39153887660482,60.14032091795698
183.857546,0.3134564383237577,26.80827975533752,4.16063603127903,73.7785209102446
183.8856455,0.313406363034854,26.802042185205607,4.0197512904481725,71.28048648317582
183.9140765,0.3133556939636381,26.79573157729788,3.760987435942425,66.69213527075323
183.9423735,0.3133052606682855,26.789451259017515,4.147821914610915,73.55193518343478
183.9707665,0.3132546532158506,26.78315018065231,3.648302941527024,64.69432138639816
183.9992165,0.3132039410811022,26.776836999896524,4.083959880426525,72.41991395080835
184.0277045,0.3131531581022403,26.770515933918908,3.567875359826397,63.26849190591033
184.0563035,0.3131021741103872,26.764170787625385,3.893453991677404,69.04212204513176
184.0843645,0.313052146146903,26.75794553812096,4.216155540160919,74.76476288650117
184.112418,0.3130021284970687,26.751722478378767,3.9110924675476095,69.35530270122966
184.141135,0.3129509246876183,26.745352778460703,3.4318082024084715,60.85634663754895
184.1698595,0.3128997042725083,26.73898196263836,3.898062052210173,69.12464263906583
184.197928,0.3128496504742654,26.732757168654373,4.189959047136267,74.30108942927346
184.225901,0.3127997638804679,26.726554070816917,3.986151118500547,70.68714008000308
184.2546065,0.3127485677289223,26.720189073669555,3.3008230394110587,58.534265744599246
184.2835145,0.3126970070996014,26.71377972095729,3.709732279988768,65.78574423954014
184.3116975,0.3126467363673788,26.707531637413304,4.085635748588653,72.45195789645446
184.339594,0.3125969735275121,26.701347579205084,4.049310961410446,71.8080040814811
184.3683035,0.3125457571465251,26.694983823463488,3.1323284486377774,55.54696093888486
184.397135,0.3124943197601258,26.68859356157365,3.910299466431951,69.34326940487598
184.4253485,0.3124439816518814,26.682340792887704,3.8702734198515136,68.63366684522067
184.453547,0.3123936670544828,26.67609185947197,3.9444282059431446,69.94889685082389
184.481684,0.3123434589377845,26.66985706220952,4.036499078305441,71.58185160168162
184.5105345,0.3122919742513288,26.663464687094667,3.1956029329788382,56.66986392657186
184.5394615,0.3122403495888312,26.657055893409723,4.011874781554593,71.14559568393182
184.567675,0.3121899949258818,26.65080568696254,4.148777637144002,73.5736105485898
184.5962625,0.3121389693696453,26.644473140224985,3.624714445572873,64.28016547277524
184.624533,0.3120885062557171,26.63821131956407,4.576624090212432,81.16143040306169
184.6524795,0.3120386181798164,26.63202175668285,4.057481536008296,71.95521095915146
184.6811015,0.3119875208302524,26.625683090963367,3.7726978644703113,66.90506599868395
184.7098755,0.311936148620843,26.61931127772793,3.892762078140656,69.03449044212384
184.7385465,0.3118849567976721,26.6129627846008,3.899112523397813,69.14731359649504
184.7667525,0.3118345917985502,26.60671775082997,4.483183535723692,79.50552737066181
184.794642,0.3117847885883954,26.600543275181003,4.273642798805456,75.78971434314695
184.823092,0.3117339810213338,26.59424520269798,3.793241746899211,67.2703741424388
184.851588,0.3116830877951028,26.58793744408797,4.215498312929582,74.75900540311545
184.8798395,0.3116326277593035,26.581684296375283,4.071873019206,72.21211811118717
184.90856,0.3115813264752471,26.575327838587068,3.670074910682292,65.0866726541966
184.937277,0.3115300278334178,26.56897265541125,4.0541500843043625,71.89823798247404
184.9658605,0.3114789640712613,26.562647511035777,3.772692580817397,66.90693275273301
184.994532,0.3114277394787455,26.55630338756201,3.895221385180384,69.08012748782997
185.0229935,0.3113768864728523,26.550006218379707,3.9769195015417584,70.5292161715851
185.0511765,0.3113265275233324,26.54377114508276,4.203401551089088,74.54600896990496
185.0798175,0.3112753465633045,26.537435230767084,3.41514986535883,60.56679099876237
185.1082215,0.3112245854897622,26.531152226083385,4.523450626750093,80.22245019109118
185.1360075,0.3111749253409252,26.52500638561002,4.175019746892875,74.04331330888623
185.1643165,0.3111243268848829,26.518745333480695,3.884059660295928,68.88338311324692
185.1929575,0.3110731313308104,26.512411332484337,3.789330898092728,67.20357686215712
185.2213615,0.3110223557295118,26.50613021852414,4.172781698687387,74.00427239720653
185.249586,0.3109718973599796,26.499889264282057,3.9989602248976976,70.92175519881008
185.278429,0.3109203294976301,26.493512026547045,3.401060120459189,60.31814680894542
185.3071845,0.3108689142682909,26.48715461465097,4.062362523552666,72.04662554158062
185.3355125,0.3108182596845911,26.480892183008415,3.813668169600005,67.6361902307293
185.363619,0.3107679975027429,26.474679173885814,4.292716458176676,76.13243073065057
185.3920575,0.3107171378767172,26.46839323580899,3.4397593202677754,61.00519521662441
185.4208245,0.3106656869211213,26.462035156823656,3.8782122396029153,68.78149721082752
185.4489235,0.3106154269710037,26.45582517331683,4.279592709284204,75.90034484164647
185.477091,0.310565040773968,26.44960049991469,3.785937813656752,67.14536622841064
185.5054,0.3105143976920789,26.443345007890407,4.1173269832324975,73.02292018767892
185.533907,0.3104633965686504,26.437046218799125,3.565045489143011,63.22810848325359
185.56254,0.3104121661376768,26.43072004754543,3.95426942228284,70.13142320698124
185.5910095,0.3103612243691299,26.42443045362877,3.799054012835735,67.37877930465669
185.619326,0.310310552525727,26.41817510813376,4.156301499799746,73.7150190768344
185.6475315,0.3102600754895216,26.41194472503385,3.962174147391206,70.27223416094016
185.675993,0.3102091364280479,26.405658238534915,3.8944270206404688,69.0708889820869
185.704493,0.3101581245385891,26.39936369459679,3.945711921159205,69.98067483838089
185.7331375,0.3101068500410247,26.393037684541632,3.7228059239815496,66.02743577197302
185.761492,0.3100560907196549,26.386776160675296,4.317901637896691,76.58223732756045
185.7896675,0.310005647949624,26.380554598327485,3.9843485801231022,70.66655076572951
185.8180905,0.3099547581376751,26.37427881999125,4.016275515227592,71.23301688657462
185.846636,0.3099036449985607,26.36797643243577,3.796970095091517,67.34359491203
185.8750595,0.30985274631652,26.36170141567227,4.105441681137783,72.81490380562293
185.9031775,0.3098023907660357,26.35549426933404,4.113445701402376,72.95707629988183
185.9314675,0.3097517232236032,26.349249578970078,3.8541152353321855,68.3577274341413
185.959784,0.3097010042253426,26.342999464871006,4.070456266912643,72.19502689002368
185.9883405,0.3096498512912914,26.33669680695505,3.5929221419462443,63.72550349498071
186.0168785,0.3095987274085398,26.3303986616618,4.066848386190611,72.13146127564234
186.045348,0.3095477221536588,26.324116060023098,3.6207450516698807,64.21935958978777
186.0739315,0.3094965085405824,26.31780872758959,3.931067657472551,69.72360348461272
186.101935,0.309446330109428,26.311629792778287,4.3516822213246735,77.18408056830712
186.130198,0.3093956826469446,26.305394012332645,3.65647846971406,64.85371355521453
186.158774,0.3093444701437511,26.29908959328305,3.987464674263567,70.72451182146642
186.186713,0.30929439520004,26.29292611532385,4.420516393823663,78.40565155733019
186.214991,0.3092437085867903,26.286688260033745,3.59938251814216,63.84158104149604
186.2439255,0.3091918409728377,26.28030601001407,3.680930422876642,65.28817620650935
186.2724825,0.3091406458178244,26.274007445054057,4.082131156890047,72.40443411891563
186.300612,0.3090902129232015,26.26780357404343,4.1775619107229325,74.09729705310316
186.3291195,0.3090390981193185,26.26151674382904,3.596553803275845,63.79216058486352
186.357455,0.3089882875136882,26.25526825006939,4.336586541264182,76.91836405610483
186.385363,0.3089382393828611,26.249114420809107,4.078389760680142,72.3389167613873
186.4138245,0.3088871944331017,26.24283894254861,3.6724835922275054,65.13949908761573
186.4426295,0.3088355290793997,26.23648813558005,3.642240305193442,64.60326076989263
186.4710795,0.3087844961573157,26.2302160003802,4.0726406904277015,72.23758456351072
186.4990565,0.3087343075056669,26.22404853237532,4.217636748810019,74.8096371222544
186.527594,0.3086831090693245,26.217757898969605,3.405163416343209,60.39870335413539
186.5565285,0.308631193948074,26.21138015949147,3.757428993754047,66.64717375836156
186.5849785,0.308580143761099,26.205109610577235,3.976464345171047,70.53250772813351
186.6132415,0.3085294248199784,26.19888066584201,4.010032989098908,71.12813912682728
186.641169,0.3084793037188202,26.19272604123969,4.44157395390594,78.78284372098898
186.6695615,0.3084283437684449,26.186469324704927,3.4778199197873687,61.68834526056878
186.698328,0.3083767080925187,26.18013058495548,4.0098375822812695,71.12529880860106
186.726515,0.3083261082512392,26.17391992127407,4.1702517463853,73.9708928504413
186.754969,0.3082750247106967,26.167650809663925,3.650884316120958,64.75867254263001
186.783446,0.3082238954438441,26.16137701351268,4.109374190380065,72.89149102370457
186.811713,0.3081731388226011,26.155149859904174,3.9016528146755896,69.2071613541209
186.8398425,0.3081226247326258,26.14895336873347,4.264611941259109,75.64551731769481
