T(K),X,m,cp(J/gK),cpm(J/molK)
175.1078705,0.3289743709898976,28.786098586488063,2.728292630422339,48.3362165104459
175.1364045,0.3289237706153442,28.77950073373293,2.8856169746405107,51.12362667719427
175.1648315,0.3288733615628963,28.772928817001514,2.960598625340523,52.45220700931021
175.19314050000003,0.3288231633031805,28.766385362679348,3.1223129534433465,55.31742064742492
175.2215945,0.3287727094630627,28.759809579087765,2.924728089306865,51.81699822930649
175.250201,0.3287219867508681,28.753199749079904,3.0799354357456528,54.56694469252445
175.27853249999998,0.3286717531480303,28.746654640812014,3.3664190700976304,59.64272278956288
175.306616,0.3286219607239322,28.740167981800397,3.5031128050561255,62.06469889287232
175.334719,0.3285721351634015,28.73367796902166,3.5309273356910684,62.55766908949216
175.36334449999998,0.3285213846914397,28.727068472332267,3.0843854207537853,54.64641690722403
175.391638,0.32847122425864117,28.720536801162048,4.165944558680697,73.80874005414286
175.419951,0.3284210306641747,28.71400178849785,3.328152198087587,58.965602659715174
175.44848100000002,0.3283704537788175,28.707417860828766,4.2040078357646715,74.48354640802903
175.4767095,0.3283204127566114,28.700904665835864,4.0134136262311655,71.10694234681922
175.504965,0.32827032522492394,28.69438638906745,4.523574556703588,80.14585944100847
175.53342650000002,0.3282198738769257,28.687821748690535,4.17676069506287,74.001444077349
175.561995,0.32816923420728367,28.68123359570851,4.844150614802916,85.82612553516081
175.5901665,0.3281192995544292,28.67473813691892,5.158638269486241,91.39831643243379
175.6185555,0.32806898067351853,28.668193674651505,5.111340306750667,90.5605762713433
175.647303,0.32801802766789234,28.66156773698782,5.312437020088884,94.12379978534818
175.67552799999999,0.32796800202295573,28.65506337095301,6.517520711704698,115.4753613245396
175.70356600000002,0.32791830903903274,28.648603216367185,6.3588455054555615,112.66432731062886
175.7322485,0.3278674750255437,28.641995714800643,6.550717024480399,116.06419592741729
175.7606455,0.32781714822892827,28.635455126726438,7.785141775526265,137.93586862494567
175.788607,0.32776759442538844,28.629015955515595,8.317191568684791,147.3630609702819
175.8169765,0.32771731873318055,28.62248395000968,8.477134706984925,150.19735091746804
175.84548,0.3276668067453408,28.615922227891467,9.571116853044424,169.58095323535915
175.87345349999998,0.3276172351176526,28.60948362108154,10.989690594973979,194.71578534278638
175.902022,0.32756661023365835,28.602909191936828,10.398971279534129,184.24993438739097
175.9306855,0.3275158181443956,28.596314043346297,12.908703166960628,228.71826591595632
175.9585785,0.3274663924709835,28.589897274699442,14.112919972686452,250.05546583982965
175.9867575,0.32741646107872696,28.583415807891836,15.052611505601204,266.70587149235695
176.0147575,0.32736684790831305,28.57697660174514,17.570913709654377,311.3266598465853
176.04296349999998,0.327316870764248,28.57049111641249,18.06120741169421,320.014751383563
176.071322,0.32726662444487853,28.56397167187075,21.212036453478657,375.8433247034513
176.099444,0.3272167981698499,28.557507689576397,22.95328345902149,406.6966024498005
176.1279855,0.32716622963856107,28.550948392956084,25.02990372093211,443.4923877894663
176.1562905,0.3271160811154762,28.54444454967431,29.044915470837335,514.6338680022134
176.18422149999998,0.3270665961644866,28.538027716340707,32.03294597069823,567.579063852102
176.2124465,0.32701659127968574,28.531544420525048,34.56980140213496,612.5303653468969
176.240912,0.3269661612552075,28.525006979677777,38.1310707069509,675.633230422904
176.268977,0.32691644167512407,28.518562595526507,43.39865754555585,768.970257623718
176.29670199999998,0.3268673253072486,28.512197331240216,47.14900275464919,835.42407849623
176.3247395,0.3268176561950761,28.50576137831117,49.99775756432567,885.9031525463362
176.353163,0.3267673041482643,28.499237902384547,53.41891819678909,946.5249594149176
176.381541,0.32671703356592546,28.492725954137075,58.33182640440752,1033.5793300001374
176.409617,0.32666729879680007,28.486284370900545,63.136364425428226,1118.7139581100907
176.4373535,0.3266181662260221,28.479921717933617,68.42491805286907,1212.4253350628037
176.465468,0.32656836485681673,28.473473403235865,69.02229040389096,1223.013724863446
176.4933535,0.3265189699058015,28.467078653852788,78.0439627542816,1382.8736906962956
176.521445,0.3264692108197474,28.460637711309907,75.32679824572728,1334.731640001389
176.549662,0.3264192301879556,28.454169049305506,84.87065672503228,1503.8456428572763
176.5775665,0.32636980381475866,28.447773065307484,84.25579015042253,1492.954914429601
176.605849,0.32631970862589527,28.441291491355507,88.88668845019738,1575.015811551522
176.633784,0.3262702296441477,28.434890591622356,92.84824407493934,1645.2167618491017
176.66184850000002,0.32622052197478957,28.428461054107046,93.3246940833959,1653.6639183486157
176.6897795,0.32617105142637415,28.42206312929632,98.57572699303763,1746.7144101837696
176.7175165,0.3261219251279637,28.415710655217346,98.42259236436296,1744.0058788539254
176.74563849999998,0.32607211757693877,28.409271034509384,97.95222849362949,1735.6762190891513
176.773703,0.32602241249151753,28.402845610436824,100.00432817988965,1772.043723812256
176.801882,0.32597250522859705,28.396395004140192,96.6618202296955,1712.8205142561517
176.8300915,0.32592254454807545,28.389938450232005,97.6514685093824,1730.3617910416638
176.8580915,0.3258729554829622,28.38353086754925,94.36009318378794,1672.0441508095275
176.88604199999997,0.3258234546439337,28.377135624983985,92.1672705457572,1633.1923835789487
176.91392,0.32577408274566916,28.370757976268735,87.44804809496405,1549.5727698858293
176.9420535,0.3257242588907093,28.364322892571888,81.85448676605506,1450.4594552250414
176.9705835,0.3256737333738232,28.357798155668593,76.36357966098532,1353.1646612784662
176.99898000000002,0.3256234447958395,28.351304987277,75.7859341399948,1342.9326615434327
177.0268845,0.32557402800749075,28.344925326046187,75.47051380610309,1337.3471994491408
177.05490350000002,0.3255244089174686,28.33852048844361,74.25758453950208,1315.8577019521986
177.0829875,0.3254746751750522,28.332101797064695,76.85766456053693,1361.9354915006227
177.1108155,0.32542539521706165,28.32574260513763,79.5276601086901,1409.2524312077721
177.138918,0.3253756295786683,28.319321682797277,79.89281784354156,1415.7271912265094
177.167315,0.3253253428401098,28.3128344886172,83.16115223441032,1473.647432113841
177.19529599999998,0.3252757931701451,28.306443325105533,88.95497804466955,1576.3207457622275
177.22324600000002,0.3252262987736228,28.300060228094008,89.76577163559313,1590.6928991827235
177.2514635,0.32517633105057125,28.29361703782824,93.55275570002502,1657.804865350698
177.279673,0.32512637784782294,28.287176673605966,96.3755151351573,1707.8305914400053
177.3078635,0.32507645862824236,28.28074164313438,100.14006989984829,1774.5458152896354
177.3357985,0.3250269921616803,28.274365915470888,104.67994856185385,1855.0006475444452
177.3636455,0.3249776818234038,28.268011241188677,106.71240989680044,1891.022636290245
177.39144349999998,0.324928458536856,28.261668711245296,110.43116392725966,1956.9272557091672
177.41951999999998,0.3248787423702636,28.25526361142108,108.81336824048083,1928.2641688697631
177.4476685,0.3248288989713471,28.248843066733578,113.37671804280215,2009.1363298403708
177.4756645,0.32477932585288305,28.242458278251576,112.40407913711375,1991.9059966424345
177.5038935,0.3247293403875978,28.23602133057711,111.81571983664753,1981.4854274996555
177.5321985,0.3246792205659498,28.229568037712724,109.84726504633365,1946.6080823200623
177.56012950000002,0.3246297631869932,28.223200978083554,109.99486774524046,1949.229314711834
177.5882135,0.32458003507526045,28.216800004894598,99.81324158474591,1768.8048392236394
177.61645,0.32453003710395656,28.210365245706175,96.61327817177725,1712.1027621752926
177.6444,0.3244805465880058,28.203996734301057,89.1671482862509,1580.152950059117
177.67227,0.3244311978641287,28.197647397982667,84.5522663449084,1498.3757564504144
177.70039200000002,0.3243814030544531,28.191241607249406,75.93456601942472,1345.6627999785262
177.72903300000002,0.3243306893794672,28.184718580713046,70.51005795706217,1249.536863631474
177.7574525,0.32428036800432286,28.17824698138195,67.40714845958163,1194.5524326375328
177.78534150000002,0.3242309860452435,28.171897133004737,64.39651471349721,1141.2028856252855
177.813578,0.3241809888462008,28.165469118513368,57.24016797775236,1014.3846056132201
177.8420205,0.3241306269419646,28.158995176241294,55.425438341132,982.2276324174422
177.8705695,0.3240800764981443,28.1524979676612,49.70835362488456,880.9142924563781
177.8987985,0.3240300926835925,28.14607454296499,50.169295200878636,889.0855023506615
177.92661550000003,0.3239808383830133,28.139745797360046,45.404223651972096,804.6425901533274
177.954993,0.3239305916197086,28.13329047920651,42.03960098484621,745.0177253413111
177.9836755,0.3238798047799969,28.126766751180728,38.948222122316984,690.2349247240705
178.0119115,0.3238298084967033,28.12034552981884,38.77371232364805,687.1442673722452
178.039988,0.3237800945774576,28.11396151507051,34.98573303136695,620.015813808799
178.068404,0.32372977944748516,28.107501251522123,33.210364605588985,588.5545103312397
178.096644,0.3236797758672756,28.101081942048896,31.550637376959653,559.142414993618
178.12453299999999,0.32363039369087265,28.09474333806179,30.577816319204043,541.9035608597433
178.15265499999998,0.32358059883366735,28.08835270027388,27.386666970125585,485.3510402686899
178.1812995,0.3235298786659269,28.08184427598157,25.76113123356788,456.544362265623
178.209719,0.32347955675152795,28.075387920091767,24.97628811568256,442.6364863401593
178.2379325,0.3234295994357371,28.068979292604904,23.497764254479346,416.43488883272903
178.2665235,0.32337897350505085,28.062485859246774,21.35014125447686,378.3751320043246
178.2949395,0.32332865725103255,28.0560331086749,21.396671216521685,379.200853341508
178.32311099999998,0.32327877372667974,28.0496368002447,19.60389317581955,347.42948218678134
178.35138899999998,0.3232287013997008,28.043217230901718,18.89009327997832,334.78014876160546
178.379923,0.32317817552840933,28.036740477291257,17.025657152574666,301.7385120344755
178.4083885,0.32312777069543575,28.0302802026617,17.123312876603226,303.4701049914206
178.436541,0.323077919835409,28.023891875789587,15.92358746177798,282.2086288191235
178.4649225,0.3230276631914162,28.01745250056298,15.024806711734119,266.2805976687961
178.493281,0.322977446975202,28.011019260201124,14.415397949253382,255.48095017579618
178.5213875,0.3229276766812605,28.004644088895944,14.08537258800566,249.63269907685222
178.549265,0.3228783115751865,27.998321744644272,13.531966651730942,239.825460933289
178.577513,0.32282829005321206,27.991916271397297,12.131528525333389,215.00628001928493
178.6060395,0.32277777500196936,27.985448559885345,11.851280515575034,210.04007474279632
178.6344475,0.32272746941538794,27.97900862606035,11.258376976569512,199.53263252349342
178.6631415,0.32267665697614445,27.972504777953922,10.371136169308286,183.80856927578205
178.691454,0.32262651970576245,27.966088305943185,10.977761608753324,194.56040831743098
178.71956849999998,0.32257673265034276,27.959717593633798,9.784427263737435,173.4112741462163
178.7482475,0.32252594550005187,27.953219874734287,9.200074203476195,163.05515062400926
178.776789,0.3224754013895637,27.946754217554098,9.262552201541606,164.16294173869437
178.8050445,0.3224253632924643,27.940354240335164,8.967896663748396,158.94113334553154
178.8336165,0.3223747642163735,27.93388347387594,8.12157140301941,143.94183802359268
178.8619405,0.3223246038358057,27.927469762915706,8.74029051939889,154.90809081672535
178.890215,0.32227453061013955,27.92106814285773,7.624816881721055,135.13844112345126
178.91850849999997,0.322224423214078,27.914663101135805,8.149551419866217,144.43899090461628
178.9468215,0.32217428074622434,27.908254524280796,7.089526689341509,125.65195167844371
178.9752605,0.32212391457542183,27.901818310979028,7.459451196630055,132.20873042836334
179.003489,0.3220739206391415,27.895430610712577,6.9156374773102645,122.57071762117286
179.0319005,0.3220236020172066,27.889002376776606,6.759449890157996,119.80284246341282
179.060198,0.3219734846990581,27.882600807922973,6.67097176493971,118.23501935526133
179.088366,0.3219235961295594,27.876229397341014,6.570570602833298,116.4558634283092
179.1165565,0.3218736670891466,27.869853756712075,6.29735997347876,111.6138381767947
179.144957,0.32182336546845475,27.863431489119016,5.963951195872359,105.70483771667072
179.173293,0.32177317742912903,27.857024672453715,6.068548929272456,107.5590350602981
179.2015215,0.3217231791230095,27.85064301917231,5.787680681598496,102.58121850370446
179.2300245,0.3216726939310271,27.844200175597408,5.38695412799637,95.47899360964512
179.2586345,0.32162201850414734,27.83773401891927,5.334539852755198,94.550273199225
179.286768,0.3215721863650627,27.831376407306823,5.711526126261447,101.2323315470925
179.3147795,0.3215225696053353,27.82504720176009,5.229654439868434,92.69179808624877
179.3431495,0.3214723170917872,27.81863784178349,5.021916665476875,89.0100559151583
179.37155,0.32142200978921365,27.81222244469756,4.99083006884111,88.45932369017034
179.400149,0.3213713500860865,27.8057630691979,4.592070243473718,81.39179431360544
179.4287365,0.32132070994944223,27.799307152282136,4.816030114760167,85.36160295342937
179.456946,0.32127073860207095,27.792937441101916,4.933491331906672,87.44379320894706
179.4852355,0.32122062472397056,27.786550503804218,4.578380807469013,81.14986208439541
179.51354049999998,0.321170482555926,27.780160904812877,4.79876693606721,85.05635880492684
179.5417845,0.32112044760474695,27.773785909278015,4.569310322836903,80.98955930231638
179.5702155,0.32107008051186514,27.767369544297555,4.487819091687138,79.54538434459032
179.598929,0.3210192120571325,27.760890276023662,4.214833442596115,74.70700633507175
179.6275085,0.32096858008438284,27.75444209317931,4.608576718647752,81.68625871931187
179.655596,0.3209188188482143,27.74810573898223,4.757798460187573,84.33143127795785
179.684157,0.32086821780608593,27.741663400163198,3.9722811089613725,70.4084318268314
179.712626,0.32081777881136014,27.735242647963688,4.7748251230996965,84.6337198884622
179.74082800000002,0.32076781191768106,27.72888293324227,4.222879527230714,74.85070621184335
179.769404,0.3207171814130965,27.722439709415642,4.273284932402493,75.74436508218464
179.7979075,0.3206666783689343,27.716013662965956,4.243789103018247,75.22176781333776
179.82622400000002,0.3206165056573326,27.70963059431462,4.437091761807167,78.64831251574114
179.8545175,0.3205663726907194,27.703253523691323,4.205065946400258,74.53582532013728
179.882983,0.32051593392792393,27.69683850447409,4.130648044285033,73.2169626385863
179.91142150000002,0.3204655419596586,27.690430387777596,4.1715521460585645,73.9422147789857
179.939612,0.32041558839040246,27.684078958255828,4.405871136520618,78.0958253873206
179.9677265,0.32036576843987213,27.677745447834646,4.21525127367267,74.7172267756473
179.9962145,0.3203152855458386,27.67132860582498,3.8881518566017954,68.9194428931741
180.0248435,0.3202645516715143,27.664880822160143,4.04684761849614,71.73261470089331
180.053469,0.3202138228644915,27.658434644779383,3.888183562300393,68.92040799834332
180.081629,0.32016391787335746,27.65209408949538,4.613972150278944,81.78568547663095
180.1097245,0.320114126065521,27.645768842090273,3.9625150546272314,70.23838237088765
180.1381825,0.32006369066454704,27.63936278097656,4.157917211185471,73.70223809844705
180.1668495,0.3200128836647895,27.632910481997026,3.7439065063543784,66.363778517328
180.19554349999999,0.3199620275981429,27.626452917231553,4.139680907995526,73.37941581173696
180.223963,0.3199116568317336,27.620057926563288,4.062078307011625,72.00405182425311
180.2522795,0.3198614674082506,27.61368690100975,4.270862338845643,75.70515869828415
180.2809165,0.31981070866869943,27.607244562961174,3.6595845878828412,64.86986014702495
180.3092215,0.3197605371477366,27.600877699965945,4.620877752914083,81.90999642455996
180.3371755,0.31971098655424224,27.59459055562095,4.055862443629958,71.89470159670832
180.3656215,0.3196605625828248,27.58819353434411,3.9669544034454165,70.3189114586693
180.3939345,0.3196103730830366,27.581827200805584,4.1174775766337435,72.98732210075615
180.422232,0.31956020976233396,27.575465126409103,3.9122379119985617,69.34939874655122
180.450842,0.31950949113602356,27.569033577758585,3.683759874063383,65.29952549356847
180.4793725,0.31945891209454014,27.562620684331897,3.977728088856527,70.51070724363946
180.5074945,0.3194090559111933,27.55630037458582,4.139405589100965,73.37687442051245
180.5358185,0.3193588402593689,27.549935430671276,3.701732936184535,65.61869166410597
180.5642,0.3193085212903032,27.543558333073538,4.080253638404363,72.32874078494227
180.5924475,0.31925843851511404,27.537212105281046,3.8510640247209267,68.26620117214786
180.620764,0.3192082320055783,27.530851135707923,3.9808524980031255,70.56711137283504
180.64912650000002,0.31915794251894103,27.524480593724146,3.810862564321594,67.55395802412906
180.6776945,0.3191072872126503,27.518064661979643,3.7464885062486895,66.41301332891705
180.70654100000002,0.3190561365950059,27.51158696338377,3.4931781680297065,61.92283036658719
180.7351055,0.31900548453016914,27.505173360283703,4.078374526604955,72.2966934921842
180.763079,0.3189558790066555,27.498893195693693,4.208913843358195,74.61095643644757
180.79143,0.31890560258183187,27.492529027010633,3.62546891131804,64.26847803925457
180.8201125,0.3188547367597125,27.486091206405813,3.7670601821796956,66.77865411348282
180.848391,0.3188045858745018,27.479744812886906,4.076587418453698,72.26585054629047
180.8766885,0.31875439976788866,27.47339489762324,3.7228464700064574,65.99525957527261
180.904963,0.3187042529137427,27.467050883277345,4.115965701592271,72.9643331318884
180.933184,0.31865419939812367,27.460719608298685,3.7818616905310285,67.04181530440673
180.9616415,0.3186037248399329,27.454336017522298,3.8037872489980673,67.43069022554745
180.989775,0.3185538233811641,27.448025837080444,4.158938168284894,73.72675167442777
181.017878,0.31850397444542466,27.44172322097134,3.834722145065424,67.97947173781854
181.046332,0.3184535012889946,27.435342621294012,3.747538187639586,66.4341242536278
181.0749915,0.31840266194495565,27.428916685043717,3.607622647351767,63.9539723228405
181.103697,0.3183517393151721,27.422481182619613,3.701401920251645,65.61663286598734
181.132094,0.3183013622797711,27.416115577409727,3.970135543314031,70.38081473423652
181.160029,0.3182518032055982,27.409854247150605,4.280191213419718,75.87756187302405
181.1880975,0.31820200563991635,27.403563702535255,3.811505114922056,67.56907130371864
181.216494,0.31815162445671313,27.397200369046846,3.849967766428527,68.2511223525076
181.244799,0.3181014038991946,27.39085825898944,3.901310565135932,69.16151293285107
181.273211,0.3180509917602075,27.384492894491707,3.706459525404753,65.70743061206305
181.301165,0.3180013905518786,27.378230841821015,4.485060645799385,79.51055493403223
181.32959599999998,0.31795094120671524,27.371862647877514,3.1538162462541894,55.9105949436913
181.3581605,0.31790025317668763,27.365465273573154,4.323514865121632,76.64713975378133
181.386088,0.3178506937560982,27.359211261126497,3.901945598658617,69.17377024061348
181.4146335,0.3178000358419475,27.352819566455878,3.5571521809013102,63.06144970541471
181.44354850000002,0.3177487203224644,27.346345867053802,3.440382685983532,60.99153209476226
181.4720635,0.31769811281953453,27.339962441048417,4.0444939408787475,71.7015006911559
181.500094,0.31764836337309016,27.333688169747195,4.023340440941683,71.32669224223552
181.528048,0.3175987478921345,27.32743170496726,4.097598719454702,72.64336758945456
