T(K),X,m,cp(J/gK),cpm(J/molK)
181.307051,0.3179909462937216,27.37691239134934,3.37404125557568,59.814587869299125
181.335547,0.3179403812384858,27.37052978795103,3.580944447741684,63.48272719810684
181.3635315,0.3178907220738721,27.364262452133897,3.6782124137824512,65.20727338609
181.3918975,0.317840384148161,27.357910383172584,3.351324047052709,59.41237557664199
181.420393,0.3177898145946767,27.351530029316844,3.587607857448442,63.60140759894661
181.448614,0.3177397303719821,27.345211841841454,3.482924766570353,61.74575538374337
181.476828,0.3176896567569626,27.3388959198018,3.553727146716878,63.0011312614097
181.5049275,0.3176397845362456,27.332606321553776,3.535607938594518,62.68009076562405
181.533194,0.3175896140723032,27.32628003816324,3.4520969709740004,61.19976561969205
181.5613575,0.317539624570417,27.319977498438647,3.583009467122757,63.520802931965015
181.589514,0.317489645630016,27.313677213225805,3.4637097202836453,61.40599358169636
181.6180405,0.3174390080103163,27.307294836658627,3.39181525956582,60.131596107063565
181.646109,0.3173891814957274,27.30101561624395,3.74243165926262,66.34766873759838
181.674216,0.3173392847401825,27.29472846251031,3.379759870497745,59.9182172435826
181.7027805,0.3172885738522332,27.28833966706416,3.481755464139525,61.726630894578285
181.73099,0.31723849124802,27.28203095721751,3.570336584903416,63.29723237792858
181.7590965,0.3171885895651363,27.2757459577726,3.522879258402581,62.45605788005978
181.787375,0.3171383805338117,27.26942317560076,3.4573758804355483,61.29494573509881
181.8158325,0.3170878516745106,27.26306105638273,3.4106372139795087,60.466503788038295
181.8443395,0.3170372328876911,27.256688558251305,3.4240001841158936,60.70359030517397
181.872515,0.3169872007165737,27.250390838507563,3.599583988626437,63.81667349683634
181.900614,0.3169373023790879,27.244110883736187,3.4863158115495296,61.8087307852648
181.9288545,0.3168871507290146,27.237799972754846,3.5540292606817365,63.00940149991893
181.957255,0.3168367128659449,27.231453980242097,3.439791000643321,60.98424812761981
181.9857695,0.3167860704393352,27.225083192634145,3.529965945562941,62.58314746129229
182.0139525,0.3167360146777941,27.21878713518637,3.65305841868406,64.7656540533052
182.0421585,0.3166859159750547,27.21248660017223,3.536546365981934,62.7001743680279
182.0705435,0.3166354972118494,27.20614674625261,3.553246932018157,62.99644527172435
182.0988675,0.3165851846601681,27.19982118027704,3.5746137402600238,63.37544677854429
182.127287,0.3165347003076152,27.19347495064198,3.51046693955059,62.23834914137427
182.155592,0.3164844171860398,27.1871549489874,3.642546354884156,64.58022043556171
182.1838895,0.3164341452127014,27.180837278025898,3.527740490132456,62.5449606872216
182.2123205,0.3163836338652329,27.17449046078364,3.574103836591428,63.367142604065286
182.240744,0.3163331336196424,27.16814597604137,3.546761400347605,62.88255737259628
182.2690035,0.3162829225368068,27.1618387488009,3.6809738478273033,65.26227531785744
182.296946,0.3162332725077582,27.15560290875798,3.71532427210142,65.8714838468631
182.3252435,0.3161829894615291,27.14928848727805,3.472182315124103,61.56083489346215
182.3537965,0.3161322501173674,27.14291770626842,3.54973771020274,62.93605469787674
182.3820745,0.3160819971744882,27.13660892905186,3.610094020929477,64.0063439440395
182.4102995,0.3160318361415912,27.13031261475933,3.5726516327213536,63.34267997772152
182.4385015,0.3159817136985995,27.12402206673815,3.6024320377243177,63.87086744412366
182.466856,0.3159313179057967,27.117698141711283,3.4601043679478614,61.34758601437112
182.4950775,0.3158811561796562,27.111404513807333,3.666236041393401,65.00248466010902
182.5232605,0.3158310605605108,27.105120101177825,3.488009739825327,61.84270506016909
182.551615,0.3157806577405499,27.098798079431457,3.561605188468797,63.14774196192988
182.580008,0.3157301840997781,27.092468107951333,3.4689056204348434,61.5043449814399
182.6084125,0.3156796876152707,27.08613620600328,3.5511612199275278,62.96293536420167
182.6366715,0.3156294473990235,27.079837365583693,3.545326307124638,62.859662969539656
182.6651215,0.3155788651853303,27.07349658161779,3.450596442017592,61.180253349326165
182.693343,0.3155286868083817,27.06720734698132,3.680852032326365,65.26295232698901
182.7215145,0.315478594913791,27.060929871505135,3.4908158945998853,61.89371563478274
182.7499605,0.3154280124635186,27.054591852207253,3.520458360661721,62.41947167388592
182.778174,0.3153778409817141,27.04830625273967,3.634884378176272,64.44848802360772
182.8063225,0.31532778263181,27.04203574477882,3.587555357185463,63.60950209825404
182.83457,0.3152775457435847,27.03574379415115,3.5900566569141628,63.65403592337687
182.8626655,0.315227576702497,27.02948630602782,3.693204328389698,65.4830996921027
182.8909365,0.3151772930191094,27.023190337914425,3.507315318385165,62.18733754190829
182.9195315,0.3151264304859086,27.016822833143195,3.513937453643153,62.30493560285736
182.947943,0.3150758917709749,27.01049680402612,3.633808792892312,64.43053845347897
182.976057,0.3150258797103336,27.00423761620221,3.7050623062945456,65.69411353748134
183.004183,0.3149758437588323,26.997976352945138,3.631878500015784,64.39668399302252
183.0325645,0.3149253506816021,26.991658814310327,3.567427239325957,63.254085474346425
183.0608315,0.3148750587067407,26.98536736262367,3.7152670656519,65.87562572780035
183.08861,0.3148256333156378,26.97918521913761,3.848657774051543,68.24097883882612
183.116755,0.3147755532377122,26.972922096854457,3.480602898926188,61.7151350408966
183.1453845,0.3147246083764721,26.96655176217803,3.535856685104694,62.69503295415434
183.1737045,0.3146742115794834,26.960250891362172,3.636561366996167,64.48083652572224
183.201544,0.3146246672472359,26.95405750339007,3.796510780486303,67.31713430143805
183.229193,0.3145754593645095,26.947907060210618,3.725144101970882,66.05189643859119
183.257521,0.3145250403700031,26.941606157308257,3.3824244036343423,59.97518201547668
183.2859975,0.314474354331452,26.9352728159069,3.626982313202732,64.31172845698993
183.314074,0.3144243775603779,26.929029016077774,3.603909176100637,63.90279185442135
183.342524,0.3143737332002902,26.922702740225077,3.3798037869433117,59.92923730150347
183.3708135,0.3143233717896504,26.91641273590717,3.6698067252381743,65.07163439437
183.3987145,0.3142736992841591,26.91020967901915,3.5941368137173058,63.73006636824192
183.426745,0.3142237935062256,26.903978396228855,3.5786249202519125,63.45519700001035
183.454764,0.3141739054631799,26.897750234218563,3.6022658303322888,63.87457477063806
183.482859,0.3141238793378017,26.89150574341705,3.5368734093102505,62.71523173010274
183.5111295,0.3140735379090741,26.88522281448119,3.492661475660399,61.9314529759116
183.5394005,0.3140231927605904,26.87894034356261,3.535060378230229,62.68344706690607
183.5675265,0.3139731030076966,26.872690658044668,3.5763922331955498,63.41652371732236
183.595263,0.3139237041487226,26.866528068955297,3.756571144638817,66.61164259862844
183.623427,0.3138735410831902,26.860271051908303,3.308356123051739,58.66404872787909
183.6517895,0.313823021576081,26.8539704992536,3.6227313667853545,64.23876397063498
183.679934,0.3137728874899258,26.84771893156165,3.422526653839958,60.688882171414434
183.708052,0.3137227977278849,26.84147380312271,3.6312234340207374,64.3897183276608
183.735884,0.3136732146012757,26.835292739136374,3.5824557786100417,63.52514015468653
183.763964,0.3136231867736866,26.829057143520934,3.496638039489113,62.00357397087473
183.7920325,0.3135731765251701,26.822824647446108,3.617360761760569,64.14445515596589
183.8202805,0.3135228435073065,26.81655284333428,3.404090350700426,60.36283592693578
183.848788,0.3134720450912185,26.81022398016949,3.478749030158651,61.68689722431719
183.877379,0.3134210948283859,26.803877139471883,3.37322728877985,59.815909164069495
183.905516,0.3133709506099931,26.797631626880676,3.763772867396975,66.7414695748347
183.9334435,0.3133211767938914,26.791433150331716,3.4813970316709497,61.7343895784557
183.961539,0.3132711005736597,26.785197921257264,3.6445318856099207,64.62738907163356
183.9895235,0.3132212192047207,26.77898785802541,3.543253604283241,62.83163232925668
184.0178015,0.3131708116375608,26.772713201221023,3.46149969991256,61.38208902545966
184.046194,0.3131201968728241,26.76641367941315,3.4609670590675337,61.372822805654245
184.0743885,0.3130699319983571,26.76015862373075,3.5779709552150023,63.44781955496875
184.1024115,0.3130199698172685,26.753942142869423,3.567184561588037,63.25672756955276
184.130377,0.3129701071032884,26.747738939528077,3.5992150616185703,63.824906402496765
184.1583885,0.3129201593038038,26.74152605373205,3.543208858489649,62.83192883582301
184.187018,0.3128691063519452,26.73517663414177,3.2590656019746063,57.79336994834999
184.215563,0.3128182008628631,26.72884649374697,3.591713371154113,63.69243636972927
184.243708,0.3127680055488447,26.72260558247348,3.483236561490059,61.7689781451179
184.2717385,0.3127180113068282,26.716390577128028,3.662350717835616,64.94543483562958
184.299891,0.3126677963089352,26.7101490387577,3.4255413168503424,60.74620679941848
184.328345,0.312617040299726,26.70384118139272,3.4914714828841698,61.91554834704951
184.356543,0.3125667377218311,26.69759059460795,3.5787260863405157,63.46305027539203
184.3845925,0.3125166968611004,26.691373436312148,3.605251686857022,63.93362421456504
184.4131495,0.3124657473253387,26.68504431255352,3.318134165837116,58.84220688584384
184.4415725,0.3124150335587281,26.678745408302888,3.7039112701190064,65.6835857785618
184.46953,0.3123651471310582,26.672550170188423,3.597611855462391,63.79870059320668
184.497923,0.3123144803197833,26.666258938732465,3.4672656077547583,61.48736858306864
184.526335,0.3122637762689774,26.65996401128857,3.6015044558954217,63.8681035572215
184.554663,0.3122132187902423,26.653688204934728,3.522475851436476,62.466813682308135
184.583201,0.3121622831405602,26.647366388370752,3.486812276078077,61.83454513867382
184.611521,0.3121117332175182,26.64109337140991,3.671009635212264,65.10125988173375
184.6393035,0.3120621394348253,26.634939903040685,3.8232382391809865,67.80105806348082
184.667239,0.3120122692546209,26.62875303456174,3.573163608589303,63.366432921893626
184.6957955,0.3119612870568761,26.62242913685792,3.4393563022360523,60.99367521110677
184.7240775,0.3119107915107561,26.61616652778143,3.7175178711908456,65.92679484344742
184.752539,0.3118599720343351,26.60986467185786,3.312223114360409,58.739433325299295
184.780638,0.3118097964163028,26.6036435705353,3.922473840663061,69.56190714723711
184.8083555,0.3117602987057955,26.59750740941135,3.529563051601832,62.59412999432757
184.836737,0.3117096117920372,26.59122473905523,3.522006397414958,62.46030086160376
184.8653245,0.3116585534508418,26.58489696552784,3.413738933432262,60.540431803168445
184.8936255,0.3116080033068245,26.57863309870432,3.6971851208325455,65.56735589608824
184.921923,0.3115574559166132,26.572370492912142,3.40459525740606,60.37862637667417
184.9504495,0.3115064959134142,26.56605769699117,3.5694448698224672,63.30232954742668
184.978804,0.3114558396230624,26.55978345034587,3.510689297332024,62.26051040603524
185.0069715,0.3114055138973423,26.553551061275773,3.6753927274768494,65.18164135068817
185.0349675,0.3113554910967985,26.54735708947805,3.6141337765294033,64.09542273139716
185.063055,0.3113053012990722,26.5411433438924,3.643078366824765,64.60893194250525
185.09141,0.3112546299273639,26.53487089574584,3.483523539184665,61.77945398846602
185.1200625,0.3112034232494315,26.52853312128404,3.468344403854565,61.51043714021572
185.148192,0.3111531476618198,26.52231150320413,3.813221881261486,67.6269703743442
185.176188,0.3111031071269835,26.51611987471801,3.564647631342822,63.218722194786565
185.204142,0.3110531381165604,26.509937993619484,3.838316778718634,68.07241719730138
185.2320505,0.3110032468906507,26.50376663015814,3.59889298455807,63.82642783882604
185.260691,0.3109520433891811,26.497433872232293,3.4046246973144894,60.38125461393185
185.289408,0.3109006993440114,26.491084677100805,3.546857315219428,62.90394601526705
185.317622,0.3108502509318588,26.484847157245994,3.699965820445983,65.61953471000109
185.3454805,0.3108004345678424,26.478688680867904,3.758925205607712,66.66538095657846
185.373648,0.3107500619938643,26.47246234902025,3.5026112217729928,62.11977529105325
185.402331,0.3106987637457532,26.46612253392347,3.4480337266378425,61.15200910803401
185.430449,0.3106484722452505,26.4599080560693,3.818148593250615,67.71631387274093
185.4586125,0.3105980956494958,26.453683972055565,3.385122767142317,60.03661080911937
185.48712,0.3105470999348459,26.447384321611462,3.580078098962964,63.49441416719382
185.5151545,0.3104969466062753,26.44118964247776,3.6268652045260015,64.32439194604484
185.5432535,0.3104466741522085,26.43498115390944,3.5018940271899304,62.108141240563135
185.571608,0.3103959407735198,26.42871666030328,3.432242378196047,60.873006383732346
185.5998975,0.3103453198740558,26.42246697410259,3.4932945753509324,61.95598670532537
185.627882,0.3102952409685247,26.41628510550425,3.566634356201069,63.256900767881945
185.656153,0.3102446455445518,26.41004038813473,3.323249093697339,58.94045476039949
185.6847865,0.3101933974421272,26.403716048089706,3.351261515776919,59.43745274226422
185.7130455,0.3101428157292979,26.397474866133283,3.540156062773256,62.78784000406983
185.7412395,0.3100923464989186,26.3912484752884,3.391545415336008,60.152271906259735
185.7695675,0.3100416334994826,26.384992928154887,3.456628739870159,61.30676545992155
185.797617,0.3099914152081665,26.37879931033688,3.558453114416553,63.11290510686107
185.8258995,0.3099407758594342,26.37255467470133,3.296016371984611,58.458484265385074
185.8541325,0.3098902212134967,26.366321398413334,3.548966931209791,62.945024643139
185.8822505,0.309839868577153,26.360113937178845,3.356591672606163,59.53320009540206
185.910418,0.30978942337056,26.35389597210532,3.5210431273983622,62.45012640433937
185.9384675,0.309739185570842,26.347704475606225,3.429396971849902,60.82484266232571
185.9670245,0.3096880347863705,26.34140138530543,3.2489614318880675,57.62475207096633
185.9955735,0.3096368942516925,26.33510049178617,3.4454170796212917,61.10934035533378
186.023928,0.3095860980786114,26.32884295020816,3.367544858671517,59.728341269135136
186.0523475,0.3095351813954065,26.32257148707023,3.428811793447072,60.81517849849202
186.080607,0.3094845473214302,26.316335750412183,3.482122526065876,61.760905368986194
186.108851,0.3094339369725316,26.310103849365717,3.445228382740106,61.10670802699696
186.13719,0.3093831523135367,26.30385140276695,3.455383836812532,61.28701076686624
186.165373,0.3093326431466649,26.2976337859015,3.5585669063569063,63.117318716350646
186.193701,0.3092818700130446,26.291384591525688,3.365110613392824,59.68621244221493
186.2222005,0.3092307853334491,26.285097978976808,3.446877599577339,61.136675064042194
186.250433,0.3091801751162021,26.27887067184003,3.5156949687422987,62.35745871216329
186.278494,0.3091298682484986,26.27268159437145,3.542210650014052,62.827946243194674
186.3066315,0.3090794201314215,26.26647604455758,3.461595475177412,61.39825887938149
186.335036,0.3090284891260755,26.260212014548536,3.3783122658474283,59.92124185234975
186.3631615,0.3089780542332325,26.254009911585158,3.6175495845552654,64.16478890151949
186.3912335,0.3089277111446245,26.247820000811185,3.416984253436097,60.60752010148734
186.4198555,0.3088763774460605,26.241509218622983,3.316752628538541,58.82987194519091
186.4480465,0.3088258125259597,26.235293863776874,3.6813087957726505,65.29626419498676
186.475966,0.308775730440244,26.229138754477216,3.4580518130595093,61.33647807437943
186.5042405,0.3087250073394357,26.22290577321147,3.458262872861868,61.34040094176318
186.5326065,0.3086741158163965,26.216653014999103,3.4194013309141305,60.65127818540807
186.56098,0.3086232065399011,26.21039899651809,3.4511879860333163,61.215270227523526
186.5892775,0.3085724293323167,26.20416211959636,3.4439656722955414,61.08734349456161
186.617613,0.3085215796265686,26.197917255795627,3.4265318530843416,60.77828915077167
186.6459145,0.3084707866165385,26.19168027167127,3.4761819055483705,61.65913998530011
186.674006,0.3084203662138433,26.185489946904788,3.5608379283878744,63.16091849405284
186.7021315,0.3083698804988889,26.17929250779171,3.4598823840001582,61.3703822519067
186.7304595,0.3083190269440117,26.17305082862628,3.4597544213595217,61.3682922643172
186.7587225,0.3082682857119756,26.166823850468045,3.517180003607113,62.38707579477059
186.7868215,0.3082178345795314,26.160633379073637,3.5724979085056794,63.36847852825889
186.8153745,0.3081665638604654,26.154343267478325,3.25701298479514,57.77262079743706
186.8437675,0.3081155759915031,26.148088781678425,3.638428265510243,64.53832234089992
186.8718095,0.308065214074886,26.14191198391229,3.427082826246759,60.78966016404888
186.9004045,0.3080138545144919,26.13561375291731,3.307193654546978,58.66323732170224
186.9285225,0.3079633472650986,26.12942095266041,3.694675454402931,65.53660784653319
186.95685,0.3079124592437768,26.12318237928016,3.179694411258171,56.401976069684565
186.982664,0.3078660826126127,26.117497674887733,5.585166388839325,99.07092375169518
187.0106105,0.3078158705874833,26.111343698590996,2.165612008091152,38.41421862158802
187.041235,0.3077608419052782,26.10460041904732,3.593958194377834,63.75081635651717
187.069582,0.3077099009138412,26.09835900547274,3.248627195356745,57.62539024234493
187.0980435,0.3076587495876017,26.09209274532513,3.5129308227222795,62.3138925630204
187.126181,0.3076081760406919,26.085898175888666,3.4301290717130866,60.84529639919632
187.1546695,0.3075569670271832,26.079626692448688,3.3238470884919984,58.960188852948725
187.1828525,0.3075063026030695,26.0734228167665,3.613007444586322,64.0896579432456
187.211245,0.3074552569655474,26.06717317935803,3.1988782807558587,56.74375732264297
187.239565,0.3074043370634318,26.060939853850734,3.665939256110245,65.02897559730472
187.2676945,0.3073537551137698,26.054748805947597,3.3308115968260537,59.08442066686984
187.2964575,0.3073020292925578,26.048418687361806,3.2958747395436485,58.46485883017025
187.324812,0.3072510334072119,26.04217882248614,3.547237859660098,62.92392347829103
187.3531135,0.3072001281876627,26.035950967656703,3.3364622018561536,59.18517905833421
187.381308,0.3071494107885249,26.029747001272383,3.609955775225533,64.03684208145089
187.4090445,0.3070995127284193,26.02364414621644,3.603367063395981,63.92014894125258
187.4374985,0.3070483192015459,26.01738376063961,3.213933352940121,57.01215024412918
187.4657805,0.3069974304196041,26.01116155859148,3.733278133676358,66.22503156944127
187.4937805,0.3069470444092433,26.00500173098561,3.39446075001785,60.21488748399922
187.52228,0.3068957547931996,25.99873235494043,3.4375063391692247,60.9786602941525
187.5509285,0.3068441921780587,25.99243054412232,3.326354469885741,59.00708876214876
187.579665,0.306792466279644,25.98610971931581,3.410292415773764,60.49626660845346
187.607943,0.3067415608824098,25.9798900793885,3.6028391607031858,63.91210222951089
187.636149,0.3066907803393623,25.97368660417285,3.464728034865393,61.46227743998749
187.664336,0.3066400292419751,25.96748763398544,3.646642668975153,64.6895272556257
187.6925645,0.3065891986401796,25.961279862312573,3.4839408483902377,61.8034632928061
187.7207475,0.3065384451812578,25.95508241982762,3.699534405415548,65.62818290992038
187.749068,0.3064874392721807,25.948855064840828,3.423990822687262,60.7403342025622
187.777804,0.3064356800720886,25.94253667624235,3.4833033547212917,61.792700865884775
187.806376,0.306384211295703,25.93625467553176,3.5332000003305737,62.67803740655569
187.834521,0.306333506843592,25.930066875674644,3.746968038542536,66.47042023039087
187.8626315,0.3062828597158165,25.92388697449665,3.573448790692288,63.39241041664887
187.8907305,0.3062322284716686,25.917709913297877,3.75508956235107,66.61488294452552
