T(K),Fc,X,m(mol/kg),cp(J/gK),cpm(J/molK)
181.500094,0.9213027804116344,0.31764836337309016,27.333688169747195,4.491885427632252,79.63316408022358
181.528048,0.9212904575600164,0.3175987478921345,27.32743170496726,4.589031514337639,81.35562459859014
181.556582,0.9212781902350988,0.3175481010932818,27.321046130258367,3.601982680336683,63.85713527109547
181.5851195,0.9212653482090266,0.3174974461707131,27.31466047925007,4.589357492712497,81.3618786785592
181.6132375,0.9212530690467904,0.3174475339897605,27.308369386655624,4.24876889634893,75.3240109290213
181.6417335,0.9212405873906808,0.31739694890047976,27.301994417223536,4.028445533463869,71.41823136958264
181.670069,0.921227966472455,0.31734664679287594,27.29565604733154,4.529947632554763,80.30933604117486
181.6983165,0.92121561738183,0.317296498973932,27.28933804848293,4.193193877654495,74.33940010855798
181.7264045,0.9212030650876448,0.3172466323892087,27.283056401947103,4.814903111658523,85.36167133951048
181.754515,0.9211908479352754,0.31719672392176734,27.276770398165315,4.1817785833239585,74.13744940925802
181.7830295,0.9211782669159496,0.31714609618340184,27.27039474056782,4.18249706553383,74.15040352299395
181.8115065,0.9211656844678796,0.31709553300841686,27.26402815709536,4.235604013184227,75.0921416307936
181.84018550000002,0.9211531275234024,0.31704460911358184,27.257617106967164,3.89170610046478,68.99544964228473
181.86848300000003,0.9211403575820644,0.3169943605963025,27.251292020378454,4.870284032810635,86.34475502853135
181.896342,0.9211281286936718,0.31694488874688065,27.24506560683565,4.5935802999137305,81.43933576399967
181.9241625,0.9211157372799568,0.31689548328516515,27.23884844874245,4.952971289980529,87.8112091548967
181.9525285,0.9211035338202402,0.31684510703757424,27.232510053372284,3.7762891241416425,66.95000989620875
181.981608,0.9210906510794732,0.316793461493804,27.226012924095915,3.8726905272191248,68.65931933415382
182.01011499999998,0.9210778073895952,0.316742830575241,27.219644390471267,4.715818348567499,83.60746113479738
182.03824049999997,0.9210654220006887,0.3166928751419121,27.21336174671051,4.50320016462082,79.83815085971052
182.0665265,0.9210529068898202,0.316642632524994,27.207043911808785,4.476408237512902,79.36338114877917
182.09470950000002,0.921040370447706,0.3165925707425081,27.200749740147543,4.672818676867252,82.84583085525611
182.1229805,0.921027937617005,0.3165423505068384,27.194436572923202,4.357804913584254,77.26107916369098
182.1512015,0.9210153141549522,0.3164922169412638,27.188135226274948,4.782913183458997,84.79822046690627
182.179373,0.9210029167101628,0.3164421691551561,27.181845583285536,4.447536679953277,78.85242095969303
182.207537,0.9209903280766608,0.31639213252667486,27.175558263143035,4.802656102967466,85.14874189662558
182.23597949999998,0.9209779283685084,0.3163415988981728,27.169209426874197,4.043413088567615,71.6879436690507
182.26459,0.9209650833943008,0.31629076452788263,27.16282375354197,4.562070647312525,80.88375205921432
182.292952,0.9209525254421396,0.3162403694372721,27.156494198529742,4.458115177192373,79.04089125559354
182.3218215,0.9209398918574478,0.3161890702804363,27.150052052224712,3.813232259443828,67.60753265889991
182.3503365,0.920926873675185,0.3161383987406303,27.14368967088116,5.013831309681157,88.89407485729454
182.37823350000002,0.920914545949671,0.3160888231640836,27.137465812464438,4.743392129880912,84.09949074162645
182.40658050000002,0.9209020679532324,0.3160384456213841,27.13114219720224,4.292819667504005,76.11114286446532
182.4353815,0.9208893309625026,0.3159872588799181,27.124717961710655,4.02765001881446,71.40992961373688
182.46373599999998,0.9208764397301918,0.31593686334341275,27.118393966312755,4.962170385983247,87.97916042742794
182.491873,0.9208640908950746,0.31588685206938005,27.112119112032588,4.3009839596849435,76.25656093418718
182.52018950000001,0.920851383991723,0.3158365194128594,27.105804860504627,4.605153937168572,81.64973963379995
182.54859,0.9208388662317528,0.315786035078793,27.099472514159793,4.10115417181152,72.71399591642523
182.5769525,0.920826075151608,0.3157356159130059,27.09314927457632,4.58708799846908,81.32990207053194
182.60526900000002,0.920813582088746,0.3156852761335457,27.086836920674884,4.084841548122002,72.42519153741684
182.6338525,0.9208008226584308,0.3156344592612115,27.0804656836157,4.082872066770709,72.39048417641918
182.6625125,0.9207880821492396,0.31558350391619483,27.074078035328355,3.899546864863617,69.14027918665091
182.69119899999998,0.9207752449659088,0.31553249896710833,27.067685121234746,4.00087010926021,70.93698294578418
182.71965999999998,0.9207624713139704,0.3154818924847158,27.061343092160485,4.223696672175435,74.88800296796605
182.7476825,0.920749826038159,0.31543206327653933,27.055099387643548,4.683623250952585,83.04294232332354
182.775694,0.9207374348538642,0.31538225121287844,27.048858739784837,4.253458646985389,75.4161289538458
182.80429700000002,0.9207247901925149,0.31533138479540035,27.042486935497475,3.810158640154043,67.55637741399664
182.832831,0.9207118609151418,0.31528063854765703,27.036131127669865,4.435547650046818,78.64512627930982
182.8613455,0.9206992685638736,0.3152299244341318,27.02978028567691,3.9176737294379556,69.46309000684681
182.8900055,0.9206863471145608,0.3151789489649855,27.023397662466195,4.278124946144372,75.8543645303438
182.9182075,0.9206736151004884,0.3151287855701423,27.01711764637854,4.67523430067455,82.89565091600814
182.946722,0.920661094230367,0.3150780637533452,27.010768656079808,3.8355292928177875,68.00720696741219
182.9753705,0.9206480727911406,0.3150271009570243,27.004390448695673,4.491555365614942,79.63934287444532
183.003584,0.9206354224491484,0.314976909402132,26.99810969299476,4.536151935138802,80.43031306561228
183.0320835,0.9206227813252396,0.3149262064428597,26.991765876770913,4.098868890483026,72.67707873690307
183.060656,0.9206098650486876,0.31487537096021295,26.985406422221708,4.4925209801427375,79.65716060437015
183.08878950000002,0.9205971489509324,0.31482531392883595,26.9791452730362,4.870750681930451,86.36382340189353
183.1172775,0.920584617095162,0.3147746234975976,26.972805830211374,4.030293716116472,71.46179598595391
183.146006,0.9205715732071652,0.3147235024160607,26.96641347928447,4.5410459962958925,80.51826527031103
183.174349,0.9205588158748176,0.31467306462976247,26.960107504501767,4.63763652661784,82.23117179255013
183.2027875,0.9205461085913996,0.3146224542023729,26.953780878198742,4.382528827857362,77.70801569304581
183.23134449999998,0.9205332558542252,0.3145716301575906,26.947428488568875,4.419120745116839,78.35706813642756
183.2598405,0.920520432442864,0.31452091193655207,26.941090264665437,4.431461376383737,78.57611409971031
183.288119,0.9205076248927672,0.31447057810992607,26.934801005507296,4.738873952232476,84.02722009931043
183.316466,0.920494987594027,0.3144201196246866,26.9284970970595,4.346436939618451,77.06895752359759
183.345,0.9204821087720748,0.31436932549641833,26.9221521930057,4.49085733455554,79.629984524252
183.37350700000002,0.9204692935282548,0.31431857663482693,26.915813882182622,4.443714608532677,78.79430005748752
183.40207900000001,0.9204564292897836,0.3142677092396062,26.90946170847355,4.424484913370081,78.45355620010267
183.43084199999998,0.920443545749594,0.3142164989378038,26.90306766546286,4.157788639529343,73.72480044384497
183.459559,0.920430499492218,0.3141653676536706,26.896684441141584,4.499834351054956,79.7900989713756
183.4876085,0.9204176475961892,0.3141154220752122,26.89045015906026,5.238242001172927,92.88365260702663
183.5160775,0.9204051938001644,0.3140647266887794,26.88412321325266,3.9178657337474023,69.47115898452937
183.5446495,0.9203919535469444,0.3140138450007008,26.877773956708264,5.129814484603826,90.96156600280939
183.57277499999998,0.9203793972652778,0.3139637556116573,26.871524486901656,4.64327172334629,82.33445628381548
183.60101550000002,0.9203665503503176,0.3139134585691491,26.8652500271293,4.9772038708591015,88.25599419281197
183.6296185,0.920353880686552,0.31386251298300183,26.85889560054163,4.094071026959192,72.59645755046202
183.65812549999998,0.9203406962845954,0.313811735445291,26.85256307347819,5.101405663107976,90.45887598558251
183.68640349999998,0.9203281037607288,0.31376136289603096,26.846281978961876,4.389000386920569,77.82662668924755
183.7148725,0.9203151165183804,0.31371064716720853,26.83995902391166,4.7097282754970005,83.51408138306911
183.7433035,0.9203023415409094,0.3136599961703187,26.833645071934935,4.314508200556781,76.50616332530855
183.77199000000002,0.920289378789293,0.3136088869748846,26.827274947284785,4.154321773733876,73.66590614670511
183.8003065,0.920276362582322,0.31355843400482186,26.820987543341744,4.775714084227105,84.68490104386686
183.828909,0.9202637251677388,0.3135074684303953,26.814637197404974,3.6786084728808124,65.23077049673626
183.857546,0.9202504397381236,0.3134564383237577,26.808279755337516,4.702983937480911,83.3957106950579
183.8856455,0.9202377612964616,0.313406363034854,26.802042185205607,4.478089885172032,79.40800374613796
183.91407650000002,0.9202249533148196,0.31335569396363816,26.795731577297882,4.169728060787952,73.94017465060809
183.9423735,0.920211964359497,0.31330526066828557,26.789451259017515,4.684582897195476,83.07013770340959
183.9707665,0.920199268222132,0.31325465321585066,26.78315018065231,4.018579757932229,71.26033515948252
183.9992165,0.9201861821262726,0.3132039410811022,26.776836999896524,4.5620937191839905,80.898550488288
184.0277045,0.9201734244384948,0.3131531581022403,26.770515933918908,3.9116167680295315,69.36399645954597
184.0563035,0.9201602937161504,0.31310217411038727,26.764170787625385,4.345383503597287,77.05613032273482
184.0843645,0.9201474252302247,0.313052146146903,26.75794553812096,4.737171601600352,84.00390075096695
184.112418,0.9201347737927196,0.31300212849706877,26.751722478378767,4.367451815809101,77.44791135260675
184.14113500000002,0.9201219023294064,0.31295092468761837,26.745352778460703,3.727833905164126,66.10577834176803
184.1698595,0.9201086371359912,0.3128997042725083,26.738981962638356,4.349102550434938,77.12297946334891
184.197928,0.9200957487885736,0.31284965047426544,26.732757168654373,4.700553832391019,83.35553324949731
184.22590100000002,0.9200830709735968,0.31279976388046793,26.726554070816913,4.466304946005263,79.20179490762607
184.2546065,0.92007025982314,0.3127485677289223,26.720189073669555,3.5526439695469043,62.9998651022836
184.2835145,0.9200569043701532,0.3126970070996014,26.71377972095729,4.098151922061805,72.67370091740258
184.3116975,0.9200438984496292,0.3126467363673788,26.707531637413304,4.599467103796848,81.56390276972967
184.339594,0.9200311941011338,0.3125969735275121,26.701347579205084,4.512930790504368,80.02955458651712
184.3683035,0.9200184397237388,0.3125457571465251,26.694983823463488,3.3632014033974063,59.641132801818074
184.397135,0.9200049831481862,0.3124943197601258,26.68859356157365,4.32648195377858,76.72363875750825
184.42534849999998,0.9199921072728834,0.3124439816518814,26.682340792887704,4.309449722503526,76.42181945684946
184.45354700000001,0.9199792049416043,0.31239366705448285,26.67609185947197,4.40668564935751,78.14638367012971
184.481684,0.9199663328153782,0.31234345893778453,26.669857062209516,4.489812249546404,79.62074756656826
184.5105345,0.9199534767502752,0.3122919742513288,26.663464687094667,3.4399549078098532,61.00312855746723
184.53946150000002,0.919939941741449,0.31224034958883123,26.657055893409723,4.490014965651189,79.62481551760654
184.567675,0.9199270054400024,0.31218999492588184,26.65080568696254,4.632535137861194,82.15247137715592
184.5962625,0.9199141131002696,0.3121389693696453,26.644473140224985,4.0067364894737425,71.05488954136725
184.62453299999999,0.919900824087049,0.31208850625571716,26.63821131956407,5.199324524756511,92.20434259860093
184.6524795,0.9198882121271726,0.31203861817981643,26.63202175668285,4.5446304704007,80.59429015930377
184.6811015,0.9198752098205204,0.31198752083025244,26.625683090963367,4.16401964688592,73.84477085175594
184.7098755,0.9198619685156046,0.31193614862084307,26.619311277727935,4.323397660901778,76.67140927389605
184.73854649999998,0.9198488164388532,0.31188495679767214,26.612962784600796,4.331031702273354,76.80701839619685
184.7667525,0.9198356591427934,0.3118345917985502,26.60671775082997,5.070534737046673,89.92171190579644
184.794642,0.919822923655037,0.3117847885883954,26.600543275181003,4.829136106280736,85.64095392378039
184.823092,0.9198100468415388,0.3117339810213338,26.59424520269798,4.187980257132343,74.27077354843986
184.851588,0.9197967863622444,0.31168308779510284,26.58793744408797,4.750560181891384,84.24796499539619
184.8798395,0.9197838570810384,0.3116326277593035,26.581684296375283,4.558462211831391,80.84147273097923
184.90856,0.9197708109892558,0.3115813264752471,26.575327838587068,4.0222159809268865,71.33169247665235
184.937277,0.9197574399911854,0.3115300278334178,26.56897265541125,4.534448825385531,80.41608573621892
184.96586050000002,0.9197443866886104,0.31147896407126135,26.562647511035777,4.159642765890473,73.76931272585358
184.994532,0.91973112793046,0.3114277394787455,26.55630338756201,4.323423992757656,76.6741222308757
185.02299349999998,0.919717983149886,0.3113768864728523,26.550006218379707,4.432239438990473,78.60414911480999
185.0511765,0.91970490732286,0.3113265275233324,26.543771145082758,4.734042981010925,83.95676840222885
185.0798175,0.9196920088653862,0.3112753465633045,26.537435230767084,3.719230729660713,65.95958571670664
185.1082215,0.9196785002904476,0.31122458548976223,26.531152226083385,5.120450652571089,90.81012070799343
185.1360075,0.9196658101803612,0.3111749253409252,26.52500638561002,4.693792278433274,83.24366191022553
185.16431649999998,0.9196528613311898,0.3111243268848829,26.518745333480698,4.305076803702627,76.35007717126736
185.1929575,0.9196396783706486,0.3110731313308104,26.512411332484337,4.178041309381472,74.097334811697
185.2213615,0.9196264125255976,0.3110223557295118,26.50613021852414,4.688614821013735,83.15257145827383
185.249586,0.9196134379966656,0.3109718973599796,26.499889264282057,4.456400073517652,79.03447328988213
185.27842900000002,0.919600327520496,0.31092032949763015,26.493512026547045,3.6963900913226295,65.55585384989519
185.3071845,0.9195867706163028,0.3108689142682909,26.487154614650972,4.50378887197565,79.87538987382074
185.3355125,0.9195737304583445,0.3108182596845911,26.480892183008418,4.249403148958724,75.36403980847071
185.363619,0.9195605583011932,0.3107679975027429,26.474679173885818,4.810648769551464,85.31809351622744
185.3920575,0.9195477128449248,0.3107171378767172,26.46839323580899,3.7484429320169115,66.479794524771
185.42082449999998,0.9195342226650604,0.31066568692112134,26.462035156823656,4.2954239485549195,76.18089781674823
185.44892349999998,0.9195210624363628,0.31061542697100375,26.45582517331683,4.7907701756020415,84.96628840319917
185.477091,0.9195081806350376,0.31056504077396807,26.44960049991469,4.208798878312029,74.64500368880249
185.5054,0.9194949464054628,0.3105143976920789,26.443345007890407,4.573075465479116,81.10585486356968
185.533907,0.9194819230287224,0.31046339656865046,26.437046218799125,3.9122004931550367,69.38509983750785
185.56254,0.9194684943786392,0.31041216613767686,26.43072004754543,4.392690111620872,77.90708632528019
185.59100949999998,0.9194553434579718,0.3103612243691299,26.42443045362877,4.184606023014006,74.21680364347826
185.619326,0.9194420557883132,0.310310552525727,26.41817510813376,4.6602767748892155,82.65338580005287
185.6475315,0.9194290364276376,0.3102600754895216,26.411944725033855,4.399735006891122,78.03271566291701
185.675993,0.9194158412624815,0.3102091364280479,26.405658238534915,4.308073687021408,76.40725523570576
185.704493,0.9194025733277336,0.3101581245385891,26.39936369459679,4.37543469389231,77.60218655291274
185.7331375,0.919389331637137,0.3101068500410247,26.393037684541632,4.115173772017825,72.98644556571881
185.76149199999998,0.9193759184020068,0.31005609071965495,26.386776160675296,4.8698551917857715,86.37167710699791
185.7896675,0.919362935962864,0.310005647949624,26.380554598327485,4.423704011216122,78.45897460897031
185.81809049999998,0.9193496786344616,0.30995475813767515,26.37427881999125,4.466351320506195,79.2156010783448
185.846636,0.9193364550572352,0.3099036449985607,26.367976432435775,4.174150432227145,74.0333183485356
185.87505950000002,0.9193230727252324,0.30985274631652004,26.36170141567227,4.586230990797155,81.3422755362857
185.9031775,0.91930995214222,0.3098023907660357,26.35549426933404,4.596874239187207,81.53128276252797
185.9314675,0.9192968439986772,0.3097517232236032,26.349249578970074,4.289270993047199,76.07577862383707
185.959784,0.919283552261161,0.3097010042253426,26.342999464871006,4.5387369011348655,80.50061495261033
185.9883405,0.9192704087231348,0.30964985129129147,26.33669680695505,3.9010738466362307,69.19100532285188
186.01687850000002,0.9192568819333488,0.3095987274085398,26.3303986616618,4.533659778501541,80.41103913791044
186.045348,0.9192437448951408,0.3095477221536588,26.324116060023098,3.976347984511701,70.52651247944506
186.07393150000001,0.91923027105054,0.3094965085405824,26.31780872758959,4.35121417302457,77.17555588235527
186.101935,0.919217016595611,0.309446330109428,26.311629792778287,4.911613961684136,87.11537020817919
186.130198,0.919204074448852,0.3093956826469446,26.305394012332645,3.982454253198264,70.63543502933945
186.158774,0.9191905663314563,0.3093444701437511,26.29908959328305,4.423642494786912,78.46087212654224
186.186713,0.9191773204605044,0.30929439520004004,26.292926115323855,5.000815102520616,88.69827221514127
186.214991,0.9191643980626386,0.3092437085867903,26.286688260033745,3.9417065056025478,69.91331820134108
186.2439255,0.9191508237141024,0.30919184097283775,26.28030601001407,4.010736161524162,71.13789698496124
186.2724825,0.9191372750891478,0.30914064581782447,26.274007445054057,4.545602628546465,80.62499057480117
186.300612,0.919124043522639,0.30909021292320155,26.26780357404343,4.672553350011893,82.87694616412976
186.3291195,0.9191108849123036,0.30903909811931857,26.261516743829038,3.9355603800090266,69.80512832153143
186.35745500000002,0.9190972876263648,0.30898828751368823,26.25526825006939,4.885602197447404,86.65629634754522
186.38536299999998,0.919084279685794,0.3089382393828611,26.249114420809107,4.540580236956878,80.5368478943139
186.41382449999998,0.9190710729283644,0.30888719443310175,26.24283894254861,3.997994801281055,70.91314969017473
186.4426295,0.9190575340861624,0.30883552907939976,26.23648813558005,3.996271964890546,70.88280240244153
186.4710795,0.9190439933270274,0.30878449615731574,26.230216000380196,4.531577703172325,80.37788069751196
186.4990565,0.9190307771356908,0.30873430750566694,26.224048532375317,4.724658569593633,83.80285315409702
186.527594,0.9190176703627516,0.30868310906932456,26.217757898969605,3.677398585764275,65.2274440722779
186.5565285,0.9190039155816672,0.308631193948074,26.21138015949147,4.108456337379661,72.87350043105232
186.5849785,0.9189904238882464,0.308580143761099,26.205109610577235,4.439682668448623,78.74883940631516
186.61324150000002,0.9189771140914867,0.30852942481997847,26.198880665842015,4.443157856018444,78.81071078578613
186.641169,0.9189637874788352,0.3084793037188202,26.192726041239695,5.018423632633313,89.01477018699234
186.6695615,0.918950783118417,0.30842834376844497,26.186469324704927,3.7687999916878,66.84964732719114
186.698328,0.918937006817336,0.3083767080925187,26.18013058495548,4.4397564743984,78.7510714335105
186.726515,0.918923638567986,0.30832610825123924,26.17391992127407,4.6536431123391475,82.54516920361206
186.754969,0.91891039792062,0.30827502471069673,26.167650809663925,3.9992604235906097,70.93809985718089
186.783446,0.9188967663396296,0.3082238954438441,26.161377013512677,4.572381322531984,81.1042452421374
186.811713,0.9188834928756242,0.3081731388226011,26.155149859904178,4.294322315071728,76.17229709621976
