T(K),Fc,X,m(mol/kg),cp(J/gK),cp_err(%),cpm(J/molK)
175.1216645,0.9392052879343132,0.3289499093917697,28.782908880667588,1.1846323107441974,0.5757819217294524,20.987750361851035
175.1511025,0.9391956506781884,0.32889770673936436,28.77610261716278,1.1586539837103291,0.5781011315754749,20.527562484667477
175.18046800000002,0.9391859877238662,0.32884563432223696,28.769314388766137,1.3751807681132133,0.57598148992589,24.363782734810734
175.2100815,0.9391763925265346,0.32879312380935616,28.762470116228727,0.8590868453994074,0.5726110992111768,15.220303486828037
175.23955,0.9391665613286184,0.3287408720562475,28.755660633607906,1.740314211577987,0.5752629135255081,30.832959936636918
175.2686405,0.9391570557803236,0.3286892921423626,28.748939745194896,1.597432733793245,0.5752075070668832,28.301628335154717
175.2978805,0.9391474671214792,0.32863744872858797,28.74218556325661,1.6291140709097258,0.5707360052621622,28.86301115132294
175.3274065,0.9391378579981868,0.3285850998130005,28.735366582683344,1.280323084415996,0.5689357525297064,22.683550336930388
175.3569435,0.9391280759815523,0.32853273296941676,28.728546330594256,1.7455013017283232,0.5685730835844149,30.925230282757916
175.38630899999998,0.9391184540826208,0.3284806717249471,28.72176693413009,1.6746175422487046,0.5700694518031956,29.669464338552686
175.41588050000001,0.9391087791387662,0.3284282468047343,28.714941242079146,1.515694235391679,0.5677518175698504,26.853876122007975
175.44534149999998,0.939099016253967,0.32837601929477994,28.708142312295394,1.984403941137173,0.5659944941154939,35.15821125316003
175.47431799999998,0.9390894083685088,0.3283246521465412,28.70145641496453,2.4871344414416634,0.5685095664793648,44.0653514855329
175.503588,0.939079958574274,0.3282727661532762,28.694704023366256,1.664717567856188,0.5644832091909914,29.49441857271925
175.5332585,0.9390701520635608,0.32822017167268613,28.687860494456512,2.0074932208917007,0.5630357826640491,35.56760983354375
175.562933,0.9390604331818622,0.3281675715592178,28.681017304268686,1.907705764179908,0.5593897963447672,33.79973562344681
175.592318,0.939050618293524,0.3281154860224364,28.674242115480304,2.784624827557558,0.5577336748126807,49.33667836632157
175.6214205,0.9390410843903644,0.328063902595372,28.667533275406903,2.67042154536391,0.5566003980066203,47.31341885807907
175.650641,0.939031449916052,0.3280121113724885,28.660798446019726,2.904171119844505,0.553026838500545,51.45505033956408
175.67985399999998,0.9390218327477724,0.32796033478315,28.654066557159226,3.0868461812628047,0.5504531850226991,54.69178411833685
175.7090135,0.9390121976300496,0.327908654334777,28.647348202690956,3.5044267707055314,0.5514296730188382,62.09053266490419
175.73852,0.939002610156812,0.3278563602082565,28.640551122906096,3.1021428035992975,0.5396191213873835,54.96313450836723
175.7681105,0.9389927405639562,0.32780391852684515,28.633735926299863,4.127012736945934,0.5365433932109919,73.1217924399123
175.797392,0.9389830920299364,0.3277520257504347,28.62699311074959,4.588688362258199,0.5329336083358903,81.3019352083506
175.8267845,0.9389734205486954,0.327699937522332,28.620225945505553,5.074720370127697,0.5229722313391655,89.91367326465564
175.856177,0.9389636930884526,0.3276478505412912,28.61345999076572,6.012176543382628,0.5170092944853472,106.52380066833483
175.885203,0.9389540159195502,0.32759641424755265,28.606779587179844,7.550748677972184,0.5086831832982084,133.7846331013271
175.9143775,0.9389445248325192,0.3275447159903446,28.600066190295454,7.809317594718601,0.4949848440646045,138.36638572473808
175.9433805,0.9389347439043556,0.3274933228021345,28.593393431904808,10.597030314436504,0.4901693153704656,187.75995623555423
175.97267,0.9389253606098902,0.32744142309807756,28.58665594372492,10.35156185373345,0.46948143770926415,183.4112539312511
176.0023295,0.938915384553999,0.327388868940791,28.579834555582995,13.681709000763492,0.4595530094493373,242.41626959872454
176.031695,0.9389057510239902,0.32733683686910114,28.573081982804993,15.601005362216513,0.44412887021822767,276.4237179700865
176.0610605,0.9388959634978078,0.3272848059157465,28.566330599701484,19.160327380136795,0.4354310885943962,339.48996882843534
176.0900255,0.9388863242550672,0.3272334856620797,28.55967245788308,23.148432196906775,0.4248843876228654,410.15394086992467
176.119124,0.9388767960252152,0.327181929933254,28.552984788917964,26.13805792477832,0.4089382939584265,463.12680044274543
176.148501,0.938867062734398,0.327129881828024,28.546234289779132,30.7432983402816,0.398863014409022,544.726321000519
176.177508,0.9388573444240944,0.3270784902906582,28.539569970303223,37.202414039828774,0.3965614623642551,659.1743659735647
176.206435,0.938847850464951,0.32702724148864426,28.53292517397698,41.673283388641245,0.3843107828438217,738.3940545318549
176.235686,0.9388381794428132,0.32697541966659505,28.52620711025028,47.272621341263786,0.37673417066953824,837.609231070368
176.2649485,0.938828465108384,0.3269235784570533,28.51948756823428,53.5657156932899,0.3721578720436617,949.1174974897965
176.293982,0.9388187806956114,0.32687214389943875,28.512821758404538,60.63810789985105,0.37148590322470837,1074.4346301615803
176.3231565,0.9388092124603108,0.3268204604950722,28.50612472457429,64.66259150411136,0.362350250835331,1145.7470733103216
176.35206449999998,0.9387994287474584,0.32676925011777735,28.499489998839955,74.1084578135506,0.37180484222628424,1313.1208852682682
176.38120149999997,0.9387900316801052,0.32671763497265344,28.49280385338534,73.9711740668033,0.35284427420910536,1310.6922685683
176.41066999999998,0.9387800901387158,0.32666543349312405,28.486042797685077,81.95755882298701,0.3612855571492303,1452.207071546386
176.439818,0.9387704673044855,0.32661380063654954,28.47935642033964,84.74582993642741,0.35650964745143987,1501.6169554369421
176.4691375,0.9387607326585558,0.32656186484821054,28.472631848122834,87.74226091853306,0.35537332891477375,1554.7155701340755
176.49782,0.9387509900937392,0.32651105824623616,28.466054484901065,94.87023079210877,0.36945577170652694,1681.0218422797316
176.5266515,0.9387416729891864,0.32645998851571245,28.459444057377134,89.20048776696021,0.35191734851562706,1580.56335084076
176.5557615,0.9387318255932692,0.32640842627189187,28.4527708962154,92.34227702339133,0.36325568418240356,1636.2382810447007
176.584635,0.9387223177141067,0.32635728371373157,28.44615305969428,87.70999875433571,0.35790331643970397,1554.1622479908058
176.613665,0.9387126217382806,0.3263058647146348,28.439500464701847,84.86152475736381,0.3610315938061124,1503.6936611946537
176.64344649999998,0.9387030040278652,0.32625311540698637,28.43267680943403,74.35878007566471,0.3450467215421339,1317.595538008677
176.6733345,0.9386928019413502,0.32620017823688846,28.42582992637455,74.5166513975323,0.3618097829526935,1320.3969592615888
176.702139,0.9386831073691856,0.32614916085940915,28.419232366869238,71.61713557848358,0.37083820242407695,1269.0227549621204
176.7311805,0.93867362068838,0.3260977244093063,28.412581624226632,63.43836098557274,0.3618638969079904,1124.1019591502595
176.7602715,0.9386637623920232,0.3260462009677955,28.405920651330693,62.18947332796985,0.3743848097378551,1101.9754517912922
176.7894575,0.938654236981732,0.3259945099370856,28.399239035782568,55.61382449812172,0.3639132485922578,985.4602197648064
176.819033,0.9386443093674685,0.3259421297301735,28.392469382242446,55.00734721326422,0.36919406807993943,974.7165690506653
176.8484065,0.9386345183867268,0.32589010792212025,28.385747089683214,55.02398086991232,0.36935406120184855,975.0142381751576
176.877421,0.93862471939617,0.3258387225315129,28.379108053902975,58.77957323121546,0.3754954191528921,1041.5656905649328
176.90668349999999,0.9386151619695604,0.32578689852567944,28.372413373652847,58.39606689590453,0.3611755769642865,1034.7731050555321
176.93616350000002,0.9386051914717496,0.3257346899170404,28.365670050592882,64.61662677569157,0.3669350109031389,1145.0043192538194
176.965491,0.9385954829433198,0.32568275195410595,28.35896272052881,67.78999394170205,0.35945078427622984,1201.2398697560282
176.99476900000002,0.9385856081339242,0.3256309022042173,28.35226781292978,74.85267688042119,0.36353499083262864,1326.3946997673268
177.023764,0.9385759266906482,0.3255795541568199,28.34563870033556,80.37587389401853,0.3614084622172925,1424.2703564886738
177.05326300000002,0.938566234939424,0.32552731408045144,28.338895461228876,82.66099844537082,0.34934098743853625,1464.7674565323523
177.08268600000002,0.9385562106188624,0.32547520909673994,28.332170700557512,92.89949867612425,0.3598610187826248,1646.2004305978483
177.11188750000002,0.9385465636590776,0.32542349684567184,28.32549765378966,96.16278976290062,0.35118594614777704,1704.0317785580326
177.1411765,0.9385366812847296,0.32537163010581666,28.318805699102573,104.3024090922792,0.3554312065554751,1848.2736584126062
177.1706105,0.9385269698090424,0.3253195070407836,28.312081709348995,106.50298729613894,0.34587559811097407,1887.2743142488896
177.1999725,0.9385169842383824,0.3252675119082912,28.305375258208315,116.27026592888342,0.35531809168194517,2060.360463758998
177.229014,0.9385073149101376,0.3252160847341091,28.298743080281657,119.73631440908808,0.3514757222559616,2121.7866655686466
177.2581355,0.9384975377882372,0.3251645162841374,28.29209369807891,124.79921546063117,0.35256576899325814,2211.5103503114783
177.2875965,0.9384878088861484,0.3251123470260812,28.28536787996937,124.01134016726033,0.34303220975254567,2197.55537984255
177.3171795,0.938477798157254,0.3250599620982436,28.278615303257038,129.05646402960735,0.3491897195338759,2286.9649107808277
177.3461825,0.9384679813503194,0.3250086045613105,28.271996177840283,132.30283998219932,0.3557540406304362,2344.4997577899685
177.37517400000002,0.9384583532802022,0.3249572677074728,28.265380724691134,127.24091575105085,0.349682146620126,2254.80556019247
177.404757,0.9384485381034712,0.32490488376362586,28.258631376847305,119.33573194139481,0.34307391617813404,2114.7260932622335
177.4339355,0.9384385071218276,0.32485321637744435,28.251975378993876,119.0758559192067,0.3603600773685189,2110.1271655396195
177.463339,0.938428957258934,0.324801150851411,28.24526912164538,102.23481746770389,0.340794267312546,1811.6948359074918
177.4929105,0.9384187689124096,0.32474878810496305,28.23852562411525,100.86758546685864,0.35885917640217574,1787.4716263268297
177.5221425,0.9384091001727348,0.3246970267573204,28.23186060511411,89.940497652873,0.35129521110695494,1593.8377694694536
177.5518705,0.9383991334665852,0.32464438736597323,28.22508357313842,82.90559173700288,0.35166205754796037,1469.1764880672497
177.58131250000002,0.9383891252641892,0.3245922546038689,28.218372808054145,79.23150248305956,0.3608347557992211,1404.071885081369
177.61049500000001,0.9383793444643024,0.3245405815247494,28.211722237673083,73.03239259491811,0.36095253853914955,1294.220498816088
177.639952,0.9383695044334398,0.3244884225645988,28.205010163961724,66.69290339712035,0.3592596834858609,1181.8807959925225
177.669737,0.9383595327902514,0.32443568297966835,28.19822442639568,61.21339960402176,0.35898107027810955,1084.7805053812906
177.6996175,0.9383494657480244,0.3243827744375953,28.191418014466336,57.153536275507264,0.36191644006980195,1012.8375732343906
177.7292465,0.9383394233807852,0.3243303113424405,28.184669959525735,54.30193786614951,0.3693880314249116,962.3063230311589
177.7585435,0.9383295191833524,0.3242784362120149,28.17799856171901,51.25050133451657,0.3742956096461565,908.2333144369951
177.78805,0.938319694006025,0.3242261902140832,28.171280503777552,46.27342280199571,0.3711412165410051,820.0347249648966
177.8178615,0.9383096423285204,0.3241734042352082,28.16449406718319,43.30860568486805,0.3751221170759298,767.4960375108435
177.8475325,0.9382996052492584,0.32412086708658233,28.157740674037928,40.93491830295301,0.38077259556279547,725.4327925506032
177.8771805,0.938289641781544,0.3240683706980386,28.150993569002402,37.894484069737096,0.3821671155666859,671.5534255023293
177.90671400000002,0.9382796137197056,0.32401607706687313,28.144273565271252,36.24965443423843,0.38993353892149707,642.4062394816269
177.9361675,0.938269721057264,0.3239639250880717,28.13757280001475,33.436856370362015,0.3920198110652522,592.5604005424576
177.965857,0.938259740515487,0.32391135521730524,28.130819387985607,30.876873780734275,0.3933572816540188,547.1946270909685
177.99553500000002,0.9382496821348,0.32385880567405556,28.124069636884443,29.315308357012793,0.3999850073090571,519.5224083026079
178.02473650000002,0.9382397028653175,0.32380709979742484,28.117429274912677,28.684759234743982,0.4090737263869752,508.3494072512194
178.05411750000002,0.9382299598602064,0.3237550760194212,28.110749111075283,25.133945265700714,0.40542156109497396,445.4234528490253
178.0838915,0.938219852878335,0.32370235628463784,28.103980630680326,23.998188454582966,0.4122974837978675,425.2968780943291
178.113196,0.9382098378923348,0.32365046777359546,28.097319898195824,23.54837530209343,0.42291739323118543,417.3265195213377
178.14255,0.9382000417897156,0.32359849149535974,28.090648923886043,20.99058701925645,0.41994142950386104,371.99827006016756
178.17225100000002,0.938189986847341,0.32354590065561095,28.083900116146605,19.765954660180032,0.4246748426889145,350.29621746591016
178.202349,0.938179949582002,0.32349260669747043,28.077062149984336,17.362734567771007,0.4272591066196596,307.7068139257609
178.232096,0.938169619298735,0.3234399340722769,28.070304963448983,18.34497202698981,0.4396907335351483,325.11526424123764
178.2615035,0.938159813029852,0.32338786240598244,28.063625905950104,16.071503546175922,0.4392488562437254,284.8250082648883
178.290751,0.9381497059089466,0.32333607384709756,28.056984181272227,16.675507205276897,0.45037370199353527,295.53026235822375
178.320452,0.9381400016591948,0.32328348205071855,28.05024048418046,13.108921976801291,0.4451035879642693,232.32246254505836
178.35044699999997,0.9381295805846724,0.3232303694185782,28.04343106552123,14.124939299094338,0.4569102694430435,250.32956454725002
178.3799765,0.9381196705844386,0.32317808079437776,28.03672833453992,12.634583875330387,0.4579228886884854,223.917381007707
178.409716,0.9381095582882756,0.32312542003934597,28.029978947813337,12.137843801117885,0.46288374480870625,215.11452009610272
178.43910449999998,0.9380994992850552,0.3230733805204186,28.023310214853016,12.130139806253835,0.47051414167868383,214.97863004998754
178.46892,0.938089618509221,0.32302058458005345,28.016545596110646,9.953088791653828,0.46588594776201636,176.39598063230613
178.498526,0.9380792629967718,0.3229681592830211,28.00982951096623,11.431211894831275,0.4794560530179217,202.59298083024592
178.527987,0.9380695179187328,0.3229159904037682,28.003147307327197,9.209654667999207,0.47811482173151676,163.22127703632947
178.55771499999997,0.9380592540554727,0.32286334836256797,27.996405541043877,9.797976976352022,0.4833848460638407,173.64854881807136
178.58697,0.9380493210871556,0.322811543530892,27.98977201788125,9.313670543190451,0.49014883113086705,165.06572820218818
178.61653,0.9380393719429309,0.32275919821056526,27.98307031682558,8.308046627953859,0.488005737674273,147.24354903018136
178.64639499999998,0.938029225028342,0.32270631237203234,27.976300465945513,7.9024294534344275,0.4888882185950988,140.05522099694724
178.67589800000002,0.938019061781697,0.3226540671430064,27.969613656720124,8.336617759770723,0.49558812221047066,147.7508108761266
178.7053135,0.9380091543930562,0.32260197641956717,27.962947649381533,7.37222399952975,0.49950357826516456,130.65914457593837
178.7350415,0.9379990439535056,0.32254933183564033,27.95621180650525,7.0010083587325544,0.49634556324725476,124.08040501185353
178.76493349999998,0.9379889171852098,0.3224963963375681,27.94943979683258,6.411170918863119,0.5057924596804139,113.62693361293005
178.7944745,0.937978688238332,0.3224440819220839,27.942748281525336,7.1195035341213275,0.5068416006588641,126.18128662916327
178.823851,0.9379687938064948,0.32239205831093226,27.936094987511872,6.190068615716336,0.5097162877772776,109.70893703232323
178.853533,0.9379586701508752,0.3223394931481761,27.929373472067628,6.0031712952200555,0.5109696147193991,106.39680727536741
178.8833945,0.9379485608142998,0.3222866095423643,27.922612289430354,5.382461369170989,0.5120826036675522,95.39598702378771
178.913275,0.9379383078990564,0.32223369171002475,27.9158477870475,5.502615628877704,0.5169861238696027,97.5258370832191
178.9427325,0.9379281787392744,0.32218152241993453,27.90918000495992,5.733732499940233,0.5203693844107332,101.62235221082331
178.97189200000003,0.9379182075877164,0.3221298803016475,27.902580611763387,5.648150928026693,0.5195421361130131,100.10583713873373
179.00154350000003,0.937908275110052,0.3220773662250742,27.89587082127778,4.43466168428862,0.5218500470139705,78.59861926816349
179.031607,0.937897961276691,0.3220241218279219,27.88906877802755,4.530916308534212,0.5241283506592244,80.30485398664665
179.061224,0.9378877405703712,0.3219716675529912,27.882368718595757,4.945580862386488,0.5253390876692522,87.65453233041333
179.0903075,0.9378777248378812,0.3219201575007403,27.8757902748476,5.242065919911471,0.5301010929231658,92.90965287064348
179.119601,0.9378678619787584,0.32186827484606423,27.869165255607516,4.289056658610718,0.5286365349505406,76.01887563351369
179.149588,0.937857695944544,0.3218151631983427,27.862384353289432,3.7207272720239652,0.5273794782553384,65.94605581742839
179.179354,0.9378473519743707,0.32176244224546463,27.855654382311673,4.471105311258306,0.533586039837364,79.245973982531
179.2087045,0.9378373302028872,0.321710456488537,27.849019285477773,4.266111350182518,0.5341369627914021,75.61288288534504
179.2384705,0.9378272636360532,0.3216577340391346,27.84229120109181,3.5520592582362815,0.5289721855062957,62.957160513069475
179.26832050000002,0.9378169505253096,0.32160486202395233,27.835545080346645,3.9460351888872305,0.5354652659527742,69.94025435804595
179.2978235,0.9378068195076212,0.3215526038480939,27.828878314676686,3.9923852030998934,0.5373052512200079,70.76198372840425
179.327212,0.9377967371221916,0.3215005476899549,27.8222383421466,3.980009043482127,0.5376704662213967,70.54283743598074
179.35675300000003,0.9377866777072844,0.32144822059147093,27.815564836844185,3.5658816606572796,0.5384005534774374,63.20291395919615
179.386275,0.9377764838868988,0.32139592631494823,27.808896545689667,3.878449543961745,0.5353463142894697,68.74318195351734
179.4156135,0.9377664306339516,0.3213439562422381,27.802270613422547,3.7772090482282836,0.5442995118889652,66.94895573082327
179.44516199999998,0.93775635578118,0.32129161331168066,27.79559816925619,3.4075643710153125,0.5391769355404663,60.39738910641618
179.474684,0.9377461515193896,0.3212393164404511,27.788932624267293,3.7358499921791366,0.5384207519278296,66.21628861962753
179.50402300000002,0.9377360879576834,0.3211873428540862,27.782309301388857,3.6349313394522778,0.5420280380808175,64.42774317863177
179.53349550000001,0.9377260024192168,0.3211351318635016,27.775656745705422,3.392019997034937,0.541750097806634,60.12241514343998
179.5628075,0.9377158402446067,0.32108320427918496,27.769041315624616,3.8198863133342287,0.5428308958920058,67.70640457073581
179.591948,0.9377058581250728,0.32103157958768747,27.76246547630946,3.5992237033692054,0.5437440299636328,63.79541207593847
179.6216225,0.9376958069496892,0.32097900790627404,27.75577003908639,2.7909395157756562,0.5430291956285214,49.468910734162264
179.65130449999998,0.9376854506811938,0.3209264219450578,27.749073820313292,3.5066723144055083,0.5440418885714445,62.15533679189006
179.680613,0.93767538737757,0.32087449670256457,27.742462754027507,3.363100286928266,0.5459255085046492,59.610718646090206
179.709925,0.9376652810469602,0.32082256425842587,27.735851781919695,3.422754887135419,0.5452972780739183,60.66827391216558
179.7395995,0.9376552084288368,0.32076998853240046,27.72915995015673,2.6815649512129665,0.5442882339100326,47.53083858342941
