T(K),Fc,X,m(mol/kg),cp(J/gK),cpm(J/molK)
181.5049275,0.745014204625612,0.3176397845362456,27.332606321553776,3.4046627753507956,60.35866405203355
181.53319399999998,0.7449741123150194,0.3175896140723032,27.32628003816324,3.3284233268751424,59.00724377113929
181.56135749999999,0.7449336366737189,0.317539624570417,27.319977498438647,3.4642179546775815,61.4148268464261
181.589514,0.7448938098273539,0.317489645630016,27.313677213225805,3.3395954863717225,59.205648152527836
181.6180405,0.7448533256423044,0.3174390080103163,27.307294836658627,3.264236560439726,57.86982468950797
181.646109,0.7448124146157594,0.3173891814957274,27.30101561624395,3.617411189049955,64.1312443648089
181.674216,0.7447732092294512,0.3173392847401825,27.29472846251031,3.2507364473090155,57.630819973848624
181.70278050000002,0.7447321594243063,0.31728857385223325,27.288339667064157,3.356410418828287,59.50443940925434
181.73099000000002,0.7446916191259813,0.31723849124802006,27.28203095721751,3.4486355024493442,61.13963700462032
181.7590965,0.7446515545757064,0.3171885895651363,27.275745957772596,3.3995075234129275,60.26883780917631
181.787375,0.7446112800213696,0.31713838053381177,27.269423175600757,3.3315567961668773,59.06433089616018
181.8158325,0.7445706951214858,0.31708785167451065,27.263061056382732,3.282969591024836,58.20311008103322
181.8443395,0.7445298796599494,0.31703723288769114,27.256688558251305,3.2966474420037835,58.44577247056127
181.872515,0.7444891239257018,0.3169872007165737,27.250390838507563,3.4787638475698293,61.674664998628344
181.90061400000002,0.7444492283258619,0.3169373023790879,27.244110883736187,3.359889116220373,59.56731778711263
181.9288545,0.7444086626969689,0.3168871507290146,27.237799972754846,3.4290676508555356,60.79395653081787
181.95725499999998,0.7443683332588105,0.31683671286594495,27.231453980242097,3.3088169749540217,58.66220225930523
181.9857695,0.7443272799639077,0.3167860704393352,27.225083192634145,3.401446135266937,60.30460586528563
182.0139525,0.7442865945817169,0.31673601467779416,27.218787135186375,3.528591003722371,62.558951445679824
182.0421585,0.7442464625326422,0.3166859159750547,27.21248660017223,3.4067580861459508,60.399130656309715
182.07054349999999,0.7442056820235158,0.31663549721184947,27.206146746252614,3.4345630499941824,60.892267650071545
182.09886749999998,0.7441650073424735,0.31658518466016816,27.199821180277038,3.445611978208326,61.088334128255234
182.12728700000002,0.7441243725510759,0.31653470030761527,27.19347495064198,3.3786617496675295,59.901526841706854
182.155592,0.7440833941749264,0.31648441718603987,27.187154948987402,3.5155631309096074,62.32888200443955
182.18388950000002,0.7440430589904576,0.31643414521270147,27.180837278025898,3.395403532641159,60.198696888364644
182.2123205,0.7440020725748859,0.31638363386523294,27.174490460783638,3.453893762988272,61.235875795734124
182.240744,0.7439613243041818,0.3163331336196424,27.168145976041366,3.413872299876788,60.526490656710095
182.2690035,0.7439203296712402,0.31628292253680684,27.1618387488009,3.553385800457733,63.00018745227384
182.296946,0.7438800237471475,0.3162332725077582,27.15560290875798,3.5892504965800374,63.63623705289413
182.3252435,0.7438399120839349,0.3161829894615291,27.14928848727805,3.3362199123268836,59.15025898739287
182.3537965,0.7437985548669884,0.3161322501173674,27.14291770626842,3.427975534164529,60.77723858330931
182.3820745,0.7437576779530546,0.31608199717448826,27.13660892905186,3.4799334749028272,61.69861992670748
182.4102995,0.7437170829961403,0.31603183614159125,27.13031261475933,3.441197891919217,61.01202110260429
182.4385015,0.7436763291709982,0.31598171369859956,27.12402206673815,3.472521428768098,61.56756145601967
182.466856,0.7436357710638026,0.3159313179057967,27.117698141711283,3.335426195360419,59.13704433598266
182.49507749999998,0.7435945476236393,0.3158811561796562,27.111404513807333,3.5390448962618577,62.74738150609262
182.5232605,0.7435543437494576,0.31583106056051086,27.105120101177825,3.3531600493012066,59.45180874376262
182.551615,0.7435132014503394,0.3157806577405499,27.098798079431457,3.44055247781761,61.00146102075692
182.58000800000002,0.743472472937922,0.31573018409977816,27.092468107951333,3.332615537907134,59.08789634589519
182.6084125,0.7434311892299735,0.3156796876152707,27.08613620600328,3.429362112604751,60.803408142867035
182.63667149999998,0.7433903975487929,0.3156294473990235,27.079837365583693,3.411843038736554,60.492965933476796
182.6651215,0.7433495042002443,0.3155788651853303,27.07349658161779,3.323715015132332,58.930602318669756
182.693343,0.7433081301244152,0.31552868680838175,27.067207346981316,3.55210086655329,62.98014358594278
182.7215145,0.7432678678101806,0.31547859491379104,27.060929871505138,3.3538848707300413,59.465867788068614
182.7499605,0.7432266081465781,0.31542801246351865,27.054591852207253,3.395391688196097,60.20197758091565
182.77817399999998,0.743185521420534,0.3153778409817141,27.04830625273967,3.50260272176144,62.10306190761344
182.8063225,0.7431449047597434,0.31532778263181,27.04203574477882,3.4524744777758376,61.21443731826927
182.83456999999999,0.7431039762121404,0.3152775457435847,27.03574379415115,3.465441042840301,61.44452015999906
182.8626655,0.7430630427348823,0.31522757670249707,27.02948630602782,3.5609107826908644,63.137442460244195
182.8909365,0.7430225248427915,0.3151772930191094,27.023190337914425,3.377822250686285,59.89132809328104
182.9195315,0.7429810521625944,0.3151264304859086,27.016822833143195,3.3840878479171543,60.002597718491494
182.947943,0.7429395639769679,0.3150758917709749,27.010496804026122,3.4971213678246,62.00695347725282
182.976057,0.7428985930399459,0.31502587971033363,27.00423761620221,3.5707043149774416,63.311824548370865
183.004183,0.7428579380628771,0.3149758437588323,26.997976352945138,3.5050195496813585,62.14735331295241
183.03256449999998,0.742816902064742,0.3149253506816021,26.991658814310327,3.437103034036497,60.9433057813839
183.0608315,0.7427754744460672,0.3148750587067407,26.98536736262367,3.579603914023961,63.470174156278446
183.08861,0.7427347407933198,0.31482563331563784,26.979185219137612,3.718769488782683,65.9379152133189
183.116755,0.7426947033253183,0.3147755532377122,26.972922096854457,3.3468135739242317,59.3428947999678
183.1453845,0.7426528734495023,0.3147246083764721,26.96655176217803,3.4049494693321516,60.37388904541779
183.17370449999999,0.7426113959665938,0.31467421157948344,26.960250891362175,3.498998194193934,62.04166733201019
183.201544,0.7425704358005581,0.3146246672472359,26.95405750339007,3.6660508551590407,65.00390807293621
183.229193,0.7425303270731974,0.31457545936450954,26.947907060210618,3.5918862286543876,63.68905220841199
183.257521,0.7424898919447589,0.3145250403700031,26.941606157308257,3.2568580919163916,57.74871321629097
183.2859975,0.7424477744655681,0.314474354331452,26.9352728159069,3.4897209874724107,61.87788336326519
183.314074,0.7424068759620766,0.3144243775603779,26.929029016077774,3.4659195230799678,61.4560254005052
183.342524,0.7423658937070383,0.3143737332002902,26.922702740225073,3.2549859867232707,57.71602137526072
183.3708135,0.7423238747042916,0.3143233717896504,26.916412735907166,3.535474822101811,62.68971154587937
183.39871449999998,0.7422833301244212,0.31427369928415916,26.91020967901915,3.456616600569115,61.29160262432994
183.42674499999998,0.7422424142653808,0.31422379350622565,26.903978396228858,3.4517396449674935,61.20530204901712
183.454764,0.7422014612562294,0.31417390546317997,26.897750234218563,3.46444269745827,61.43072569882399
183.482859,0.7421605485096539,0.3141238793378017,26.89150574341705,3.407533586268495,60.42180020590916
183.51112949999998,0.7421193427352015,0.3140735379090741,26.88522281448119,3.3610488894782624,59.59771443612485
183.5394005,0.7420778860142698,0.31402319276059043,26.878940343562615,3.405172966904886,60.38029243831507
183.56752649999999,0.7420366477139012,0.3139731030076966,26.872690658044668,3.4367921207494514,60.94113699667493
183.595263,0.7419955841692746,0.31392370414872267,26.866528068955297,3.6248786633355206,64.27646720603111
183.623427,0.7419554554856073,0.31387354108319027,26.860271051908306,3.1798672131010792,56.38567258154555
183.6517895,0.7419131091406086,0.313823021576081,26.853970499253602,3.48569360809387,61.80879184618827
183.679934,0.7418723684947425,0.3137728874899258,26.847718931561655,3.288065277416208,58.30458791873664
183.708052,0.7418306290925746,0.3137227977278849,26.84147380312271,3.4943577351871222,61.9627831757093
183.735884,0.7417899354271719,0.31367321460127573,26.835292739136378,3.454600379827064,61.257971310421475
183.763964,0.7417490036298581,0.3136231867736866,26.829057143520938,3.36401619414583,59.65187834066372
183.7920325,0.7417075516711824,0.3135731765251701,26.822824647446108,3.477745055816365,61.66873487844295
183.8202805,0.7416666227457389,0.3135228435073065,26.81655284333428,3.2772596278372705,58.11381744447745
183.848788,0.7416246122544754,0.3134720450912185,26.810223980169486,3.343074966494444,59.28105766857388
183.87737900000002,0.7415828896972448,0.3134210948283859,26.803877139471883,3.243556834069778,57.51652181889987
183.905516,0.7415406014822737,0.31337095060999315,26.797631626880673,3.6161552133639496,64.1238251227221
183.9334435,0.741500181782583,0.3133211767938914,26.791433150331713,3.3565510994130507,59.52054055486548
183.96153900000002,0.7414584777346254,0.3132711005736597,26.785197921257264,3.5036847251065657,62.1297886864028
183.98952350000002,0.7414175331397952,0.31322121920472074,26.77898785802541,3.4096183056930927,60.46191091358478
184.01780150000002,0.7413761241811667,0.31317081163756083,26.772713201221023,3.324060799035408,58.9449122002195
184.046194,0.7413342841946847,0.3131201968728241,26.76641367941315,3.3351398675755934,59.141547617022844
184.0743885,0.7412925061714261,0.3130699319983571,26.76015862373075,3.433701141180419,60.889496627625405
184.10241150000002,0.7412512175443862,0.31301996981726854,26.753942142869423,3.4339588075043825,60.894241108362685
184.130377,0.7412099132124667,0.3129701071032884,26.747738939528073,3.467203964551776,61.48395267504985
184.1583885,0.7411687627562781,0.31292015930380385,26.741526053732052,3.4082062621745846,60.43791994075176
184.18701800000002,0.7411272912884295,0.31286910635194526,26.735176634141766,3.121883842596392,55.36071067168274
184.215563,0.7410842852286322,0.31281820086286316,26.72884649374697,3.4582968707938857,61.326539907023715
184.243708,0.741043030952011,0.3127680055488447,26.72260558247348,3.344377813213332,59.306566294487105
184.2717385,0.7410011730875443,0.3127180113068282,26.716390577128028,3.531309994780936,62.62165500249798
184.299891,0.7409602255092499,0.3126677963089352,26.7101490387577,3.2829078202807778,58.216841926042626
184.328345,0.7409179749254756,0.312617040299726,26.70384118139272,3.3631810438770198,59.640526793028435
184.356543,0.7408761041442259,0.3125667377218311,26.69759059460795,3.441872209203916,61.03616308828588
184.3845925,0.7408345781011183,0.31251669686110045,26.691373436312148,3.468652467276962,61.51124599213146
184.4131495,0.7407931145296662,0.3124657473253387,26.685044312553522,3.178665449611597,56.36893526869854
184.4415725,0.7407500538718416,0.31241503355872813,26.678745408302888,3.5699779281512516,63.30846890502347
184.46953000000002,0.7407089547521227,0.31236514713105823,26.672550170188426,3.457959165438849,61.32215211721698
184.49792300000001,0.7406672399113485,0.3123144803197833,26.666258938732465,3.3325034184579585,59.09753943764031
184.52633500000002,0.740624818217996,0.3122637762689774,26.65996401128857,3.4605785298553013,61.36896139359201
184.554663,0.7405830144630206,0.3122132187902423,26.653688204934728,3.3891940517538304,60.10322349768749
184.583201,0.7405408088063157,0.3121622831405602,26.647366388370752,3.3510463295854773,59.42689457363278
184.61152099999998,0.7404983491700418,0.3121117332175182,26.64109337140991,3.5312330789209345,62.622478614255684
184.63930349999998,0.7404567575664968,0.3120621394348253,26.634939903040685,3.6778069027194418,65.22198820939003
184.667239,0.7404158612447832,0.31201226925462094,26.62875303456174,3.440242823549159,61.009217599056214
184.69579549999997,0.7403737831128968,0.31196128705687615,26.62242913685792,3.3002650487106506,58.52702564161654
184.7240775,0.7403310092796228,0.3119107915107561,26.61616652778143,3.58006627349511,63.489215900676115
184.752539,0.7402897141868223,0.31185997203433513,26.60986467185786,3.179340922589066,56.38288173617735
184.780638,0.7402463728677708,0.3118097964163028,26.6036435705353,3.782716274201578,67.08341952533519
184.8083555,0.7402061240115559,0.3117602987057955,26.59750740941135,3.383499133224404,60.00379692455898
184.836737,0.7401638847137152,0.31170961179203727,26.59122473905523,3.3870340364771,60.066661179868014
184.86532449999999,0.7401216272842656,0.3116585534508418,26.584896965527836,3.273011416005033,58.04472113584263
184.89362549999998,0.7400787408962648,0.3116080033068245,26.578633098704316,3.5576735687313206,63.093202374076654
184.921923,0.7400373038474598,0.31155745591661327,26.572370492912146,3.2746800306203414,58.07465120615357
184.9504495,0.7399943941172475,0.3115064959134142,26.566057696991166,3.4232075348168904,60.70888314041693
184.978804,0.7399522412878115,0.31145583962306245,26.55978345034587,3.373338133511256,59.8246487161834
185.0069715,0.7399098107241329,0.3114055138973423,26.553551061275773,3.5335023096877194,62.66527071788791
185.0349675,0.7398681828180618,0.3113554910967985,26.54735708947805,3.4807277765947187,61.729513086256844
185.063055,0.7398262310780596,0.31130530129907225,26.5411433438924,3.497883986811628,62.033951974429726
185.09141,0.7397842972199183,0.31125462992736397,26.53487089574584,3.342090983412978,59.271181552961494
185.12006250000002,0.739741512976879,0.31120342324943157,26.52853312128404,3.3374855370928707,59.189679694894096
185.148192,0.7396986562624684,0.31115314766181984,26.522311503204126,3.6616009333067248,64.9379935262216
185.17618800000002,0.7396574021341107,0.3111031071269835,26.516119874718015,3.4251387936383746,60.74454483795407
185.204142,0.7396149111097912,0.3110531381165604,26.509937993619484,3.6990204679962013,65.60200187615952
185.2320505,0.7395737502971363,0.3110032468906507,26.50376663015814,3.459902289484132,61.361425515203365
185.260691,0.7395313621706906,0.31095204338918114,26.497433872232293,3.268053609023321,57.95915691208666
185.28940799999998,0.7394879759612458,0.31090069934401143,26.491084677100805,3.4052908197975023,60.39324699521345
185.317622,0.739445324381334,0.3108502509318588,26.484847157245994,3.5531964788553125,63.01655501444485
185.3454805,0.7394034113121704,0.3108004345678424,26.478688680867904,3.6146835927582615,64.10722362584612
185.373648,0.739361792183105,0.31075006199386435,26.472462349020255,3.3701757496193934,59.770995694960426
185.402331,0.7393189189198691,0.3106987637457532,26.46612253392347,3.3010831304432555,58.54579208425654
185.430449,0.7392757191429884,0.3106484722452505,26.4599080560693,3.6776070093910973,65.22375556277194
185.45861250000002,0.7392345079602148,0.3105980956494958,26.453683972055565,3.2481579268404235,57.60748035289084
185.48712,0.7391911371258911,0.3105470999348459,26.447384321611462,3.4415516890021043,61.03758138198248
185.5151545,0.739148859152417,0.31049694660627536,26.44118964247776,3.4793294629503144,61.70776675266238
185.5432535,0.739106875531493,0.3104466741522085,26.43498115390944,3.3614791997462983,59.61780205056302
185.571608,0.7390643699327348,0.31039594077351984,26.42871666030328,3.2893704666995123,58.33908196282484
185.5998975,0.7390215839725106,0.31034531987405584,26.42246697410259,3.3546132194993574,59.49637728674277
185.627882,0.7389792398225531,0.3102952409685247,26.41628510550425,3.4321224751601824,60.871232975412326
185.65615300000002,0.7389373380124252,0.31024464554455183,26.41004038813473,3.1762396675066005,56.33312615232716
185.6847865,0.738894096963882,0.31019339744212726,26.403716048089706,3.21771307076364,57.068858303450504
185.7130455,0.7388510688163809,0.3101428157292979,26.397474866133283,3.3909352238112263,60.14127471262859
185.7412395,0.7388089217218659,0.3100923464989186,26.391248475288396,3.259151376441705,57.804138164536255
185.7695675,0.7387660549687504,0.3100416334994826,26.384992928154887,3.3149130784517387,58.79329656568817
185.797617,0.7387234695768219,0.3099914152081665,26.37879931033688,3.409623903589181,60.47326266727899
185.8258995,0.7386814089116551,0.3099407758594342,26.37255467470133,3.1591960125311798,56.031824343948834
185.8541325,0.7386380856643338,0.3098902212134967,26.366321398413334,3.4132857103172185,60.53856159114802
185.8822505,0.7385961405160492,0.309839868577153,26.360113937178845,3.210753419538535,56.946582851399356
185.910418,0.7385531298391065,0.30978942337056004,26.35389597210532,3.3833017937611647,60.00711068839695
185.9384675,0.7385110012043953,0.30973918557084207,26.347704475606225,3.2861122624441186,58.28350085294556
185.9670245,0.738468312728761,0.3096880347863705,26.34140138530543,3.107867159905537,55.12225316106024
185.9955735,0.7384246143251472,0.30963689425169255,26.33510049178617,3.3015634381532175,58.55789275561592
186.023928,0.738381915039059,0.3095860980786114,26.32884295020816,3.2311022146948694,57.30833109997134
186.0523475,0.7383387698548944,0.3095351813954065,26.32257148707023,3.282241769216553,58.21553677912365
186.080607,0.7382958387688449,0.30948454732143027,26.316335750412183,3.3374951775485613,59.195712467621796
186.10885100000002,0.7382531432616465,0.3094339369725316,26.310103849365714,3.310143917650456,58.710766147332315
186.13719,0.7382102242000645,0.3093831523135367,26.30385140276695,3.3071063442457955,58.65706147249078
186.165373,0.7381672056926679,0.3093326431466649,26.2976337859015,3.415156001552892,60.57367909284223
186.193701,0.7381247249588863,0.30928187001304464,26.291384591525688,3.2239643531592055,57.18273287152882
186.22220049999999,0.7380812311598964,0.3092307853334491,26.285097978976808,3.309945707140651,58.70793764243119
186.250433,0.7380381946928984,0.3091801751162021,26.27887067184003,3.3696635586782984,59.767317159865165
186.27849400000002,0.7379954763410463,0.30912986824849864,26.272681594371452,3.397709171904369,60.26493348202495
186.3066315,0.7379529260169351,0.3090794201314215,26.26647604455758,3.3128674648486633,58.7602727408331
186.335036,0.7379099402541349,0.30902848912607556,26.260212014548536,3.2375349909208033,57.42427044343915
186.3631615,0.7378665428559604,0.3089780542332325,26.254009911585154,3.4762892404911883,61.659241998796986
186.3912335,0.7378243708114576,0.3089277111446245,26.247820000811185,3.2769959961010158,58.124529109686215
186.4198555,0.7377811008338548,0.3088763774460605,26.241509218622983,3.1707800476817196,56.240728526587596
186.4480465,0.7377372189529418,0.3088258125259597,26.235293863776874,3.5288663467882175,62.592355619088785
186.475966,0.7376952263578099,0.30877573044024403,26.229138754477216,3.3193397796876,58.876102101573764
186.5042405,0.737652136143922,0.3087250073394357,26.22290577321147,3.319209327482949,58.87396026345294
186.53260649999999,0.737609026634596,0.30867411581639653,26.216653014999103,3.2653310859980773,57.918473118037
186.56098,0.7375656216729316,0.30862320653990116,26.21039899651809,3.311293404644432,58.733897251683494
186.5892775,0.7375224535462438,0.3085724293323167,26.20416211959636,3.303563856877104,58.59696619645998
186.617613,0.7374792446600609,0.3085215796265686,26.197917255795627,3.2849132201751874,58.26632119333336
186.6459145,0.7374359246991145,0.30847078661653854,26.19168027167127,3.3239521612660514,58.9589489804369
186.67400600000002,0.7373927838699167,0.3084203662138433,26.185489946904788,3.4124785541168,60.52937093850139
186.7021315,0.7373500700536082,0.30836988049888897,26.17929250779171,3.3179727815574807,58.85323121018423
186.7304595,0.7373067896772627,0.3083190269440117,26.173050828626277,3.316680375390708,58.83047922930927
