T(K),X,m,cp(J/gK),cpm(J/molK)
175.112612,0.32896596260593736,28.785002136749068,2.715774256496262,48.114456144190314
175.140917,0.3289157685813318,28.778457428575773,2.9843340739283515,52.87259287330742
175.169588,0.3288649271052584,28.771829298352348,2.0814720215682665,36.87695236176966
175.197958,0.32881462093846214,28.765271943972948,3.6705607268861584,65.03065349434563
175.2261565,0.32876462039399135,28.758755401084258,2.4884361728732363,44.087295974828876
175.25458,0.32871422240018655,28.752188041218428,3.2496511355324786,57.573808570747566
175.2826485,0.32866445533411703,28.74570386511269,3.2082337902735283,56.84018393121961
175.3108315,0.3286144867099387,28.73919439503819,3.0837469645406586,54.63481194197921
175.33933100000002,0.32856395839733243,28.732612998924665,2.649858545062882,46.94773820287419
175.3675065,0.32851400595647023,28.726107584668178,3.852374785324878,68.25300326354504
175.395888,0.32846368972288686,28.719555771312763,2.4184178209551925,42.84753369616875
175.424544,0.32841288827555737,28.71294177294666,3.4248172177462903,60.67826651454266
175.4527115,0.32836295423071893,28.706441679470416,3.512347532046101,62.22924023371464
175.4810695,0.32831268384990087,28.6998987801709,3.222645021612553,57.09666564187808
175.5094775,0.3282623261991171,28.69334550416681,3.687519588528237,65.3331915418223
175.537802,0.3282121179091515,28.686812643291557,3.7238389936663823,65.97686734399011
175.5661795,0.3281618170000069,28.680268710395147,3.8926767877544775,68.96843969835972
175.59454549999998,0.32811153778837027,28.6737285794404,4.082459531588691,72.33112221176384
175.62309499999998,0.32806093462869645,28.667147298778804,3.877563351198905,68.70106732960303
175.6516745,0.3280102795931434,28.660560264022088,4.489555224609857,79.54431917259818
175.6799795,0.3279601123521005,28.65403763935557,5.036241083145466,89.23056007537397
175.7080825,0.3279103043599516,28.647562686681546,5.576223248422798,98.79808067339371
175.736544,0.327859862215559,28.641006273353835,5.003666554839042,88.65392722284226
175.7651045,0.32780924584231835,28.634428203065053,6.268489028573486,111.06411393719351
175.79346700000002,0.327758981575844,28.62789687261694,6.511312050550343,115.36674890582458
175.821795,0.32770877962886996,28.621374614776688,7.5861758967786805,134.41146375367788
175.850096,0.3276586266899947,28.614859696662602,7.974661205014119,141.29503459258117
175.8782865,0.3276086707071411,28.60837132950121,9.596920912081497,170.03871938657332
175.906351,0.32755893911741685,28.60191306445958,10.381149507597598,183.93424795586427
175.93488150000002,0.32750838287341427,28.595348686893665,10.910011457604833,193.30524061166847
175.963347,0.3274579429180001,28.58880039210481,13.514190652625642,239.44717976865516
175.99170900000001,0.3274076874457245,28.58227702434999,14.591707367780526,258.5395894736978
176.0202275,0.3273571557414054,28.57571878335387,17.224274995713234,305.1849828954511
176.04850199999998,0.32730705742662014,28.569217762330464,20.241090388038874,358.6388786953714
176.076609,0.3272572569156768,28.56275634553065,23.602275040203224,418.1947515150061
176.104758,0.3272073829898309,28.55628636211342,26.967689967750363,477.82592239591514
176.1331735,0.32715703788413003,28.549756226854015,30.673078402189734,543.4812751924946
176.1616385,0.32710660606830716,28.54321582432608,36.068763663790136,639.0866421896246
176.1897795,0.32705674924691586,28.536750955291748,42.4089949585342,751.4285869304059
176.217909,0.3270069137372584,28.53028980697177,47.09225709717361,834.4118963079244
176.24605,0.32695705877569275,28.52382709411446,53.73638249502135,952.1396614636817
176.2742295,0.3269071365153072,28.517356616597915,57.94634480575911,1026.7377408518157
176.3022295,0.3268575331382699,28.5109284204568,65.49757663551749,1160.5395725561514
176.33032450000002,0.3268077623346784,28.504479479299217,66.7733131759269,1183.147510631709
176.3587325,0.3267574379166538,28.497959774252855,71.40700981841994,1265.2550408520246
176.38696900000002,0.32670741816047655,28.491480505000467,73.673682061329,1305.4217887658604
176.415396,0.326657061783343,28.48495860419422,73.27015849165308,1298.275536648605
176.44359450000002,0.32660711099590095,28.478490196957203,75.57610475088083,1339.138506101213
176.4715905,0.32655751970748265,28.472069292481656,72.12804388908279,1278.0457193855823
176.4995255,0.3265080372426231,28.465663420567044,71.01467646756467,1258.3214150994984
176.5277165,0.3264581020781225,28.459199897511937,63.915634889148045,1132.5355227322555
176.5557505,0.3264084457559288,28.452773417637278,64.27912702754499,1138.9795832063974
176.5836165,0.3263590877319983,28.44638648218995,57.187062447883484,1013.3162187464205
176.6119405,0.32630891919115745,28.439895624794065,53.842586120185324,954.0571115365303
176.640242,0.32625879121409446,28.433410981062,50.39402300822035,892.9533009836457
176.66830700000003,0.32620908281499517,28.426981567471866,48.97309278540352,867.7777165607656
176.6969055,0.32615843017380836,28.42043099893297,42.79605004984463,758.3259490613967
176.725569,0.326107663086352,28.413866617898336,45.01539279037156,797.6539973731393
176.75351949999998,0.3260581594614656,28.407466559825497,44.536620084860985,789.1725973759318
176.7815005,0.32600860243445473,28.401060539349036,45.40382815342246,804.5415058859935
176.8096985,0.32595866168874027,28.39460587016999,46.46344232614904,823.3199056271977
176.83803,0.32590848510471343,28.388121682888933,50.21154648675899,889.7378941206025
176.86621300000002,0.3258585721031887,28.38167251532594,54.83008444521344,971.5801980509763
176.89422050000002,0.32580897047666096,28.37526452595353,60.3971201911231,1070.230229103709
176.92274700000002,0.32575845025165107,28.368738832852248,61.89297231507052,1096.7397568060858
176.95117399999998,0.32570810678361095,28.362236944161513,72.27930070262255,1280.7885909314355
176.978796,0.32565918945368755,28.355920171997965,78.97999149980808,1399.528722324524
177.00709,0.32560908254173154,28.34945073730496,79.59139246504827,1410.3668477841834
177.035563,0.32555865912703646,28.34294140852088,90.27640716315138,1599.71094936784
177.063456,0.3255092633124259,28.336565679796365,96.68723265601797,1713.3165813597398
177.0914825,0.3254596315317957,28.330160434406285,101.62169420331048,1800.7613540129844
177.119711,0.32540964247210424,28.323710032962715,107.04005726788876,1896.7815443845118
177.14795900000001,0.3253596193072091,28.31725618760482,112.94985864549227,2001.5107499040312
177.17602399999998,0.32530992061661745,28.310845152707884,119.20049115396128,2112.2801835590135
177.20409999999998,0.325260202837936,28.304432600451904,121.31894490372967,2149.826191033701
177.232233,0.3252103844992335,28.298008025867976,124.40027717867203,2204.43511536703
177.2602025,0.3251608560479803,28.291621775472503,124.86534896354178,2212.6827391513502
177.28821,0.3251112606500621,28.285227832148173,120.81989228795159,2141.0011420192372
177.316332,0.3250614628277134,28.278808737271213,115.17093401411,2040.9040649002327
177.3446715,0.3250112801812581,28.272340995519414,106.02686268603887,1878.8705939283511
177.37270949999998,0.32496163172204096,28.265943048301427,103.18294710504287,1828.4796437656883
177.4006445,0.3249121659334773,28.25956957680196,92.404208959093,1637.4769449359467
177.4290905,0.3248617955683734,28.253080513900745,85.14967458076885,1508.9251401946876
177.45743,0.3248116140467755,28.246616741896815,80.79690492129139,1431.7944778120957
177.485617,0.3247617028032035,28.240188736799396,74.85151280401875,1326.4405514690882
177.514052,0.3247113526505967,28.23370516794066,68.59270124918267,1215.5319406387246
177.54220450000003,0.3246615029351396,28.227286992576996,67.06685106775947,1188.49575055357
177.570479,0.3246114373903372,28.22084198267844,59.081077479320406,1046.9823930576108
177.599017,0.3245609054511478,28.214337901995584,57.1624445890214,1012.9850361570069
177.6272265,0.3245109553497841,28.207909667352144,53.47802317652414,947.6955307541945
177.6552835,0.32446127542655534,28.201517145700272,51.007654961634735,903.9201945145089
177.683596,0.3244111432302689,28.19506738123428,45.791594427493806,811.4873467658316
177.712023,0.32436080841313425,28.188592511506958,44.34296920088996,785.8180810072308
177.7404085,0.3243105471845645,28.1821280704821,40.497694583558676,717.6766338050764
177.768683,0.3242604825896192,28.17568987586417,39.65343621624705,702.7172056373167
177.797232,0.32420993202315795,28.169190154255965,34.509958788575446,611.5690039490621
177.8258765,0.324159212419012,28.162669675213195,34.64476106845644,613.9597010317545
177.85375449999998,0.3241098500669488,28.156324623286203,33.479529402909435,593.3116503631936
177.881724,0.3240603257276281,28.1499596807637,30.366659443292296,538.148074323214
177.91017,0.3240099576844933,28.14348726074258,27.98163774872699,495.8829347093794
177.9387495,0.32395935325701325,28.136985435987906,26.52935764191087,470.14739544263193
177.967154,0.3239090586766991,28.130524385808574,25.54613843748399,452.72431549084126
177.99533350000002,0.32385916246149526,28.124115461079462,24.383856747977127,432.1278004836578
178.023333,0.32380958491768,28.117748404920803,23.410775878052075,414.8841633387168
178.0513595,0.32375995950462166,28.111376136031843,21.701046505404168,384.58555714231886
178.0797485,0.32370969214938894,28.104922390438922,19.733293479353453,349.71408685458795
178.108183,0.3236593441352186,28.098459250801337,19.280275391203364,341.6866770343774
178.136591,0.3236090429346607,28.09200308143707,17.738219731919404,314.35914745240774
178.16502200000002,0.3235587008842153,28.08554263033244,17.26618658398337,305.9945998401695
178.193358,0.323508526908716,28.079104705188733,16.232049101483973,287.6682534285399
178.22142300000002,0.3234588326355204,28.072729272880395,16.39261056010966,290.5145943479974
178.249842,0.3234085113707328,28.066274356201596,13.726030141466259,243.25738925632388
178.278643,0.32335751351279307,28.059733629664183,13.838592215329003,245.25297385725517
178.3069065,0.32330746720426173,28.053315902468785,13.797659780802482,244.5282587294654
178.33504749999997,0.32325763759474324,28.046926906888064,12.854669581333543,227.8168218283392
178.363192,0.3232078015610268,28.040538028593268,12.58264865537057,222.99657297338487
178.391394,0.323157863468627,28.034137010303603,11.53520146422228,204.43373026834888
178.41973000000002,0.3231076878393204,28.027706495980475,11.191334864979357,198.34009478040142
178.44811099999998,0.3230574322512164,28.021266689680434,10.448728897086948,185.1796867438436
178.47630900000001,0.32300750042181886,28.014869317057574,10.722981117415454,190.04072363612477
178.504614,0.32295737881754477,28.00844857906984,9.31937252991523,165.1653955128542
178.5330715,0.3229069868491048,28.001994164858402,9.512431956052644,168.5874393255474
178.561518,0.3228566140214122,27.99554316238187,8.594648686017402,152.32214313148214
178.5897545,0.32280661271095146,27.989140687426655,9.33008585296499,165.35670294355953
178.6178305,0.32275689525502754,27.982775496312872,8.390991231192642,148.7135963645246
178.6463185,0.3227064478410823,27.976317805820706,7.727136617556076,136.9484947091277
178.6749365,0.3226557698170431,27.96983156383051,7.474124121313582,132.46472645504815
178.7032875,0.32260556419585473,27.963406741308745,7.815061849940333,138.50760435014365
178.73179449999998,0.3225550818914237,27.956947471758976,6.624799155754567,117.41272795938187
178.76018349999998,0.3225048081072712,27.950515839266505,7.632323401235951,135.2696870542365
178.78833600000002,0.3224549526872512,27.944138671562474,6.750860982071362,119.64763927998901
178.81685099999999,0.3224044548408276,27.93768028566511,6.46819136752311,114.63813026105473
178.8450035,0.32235459847179454,27.93130488534808,7.284524083454492,129.10666578138282
178.87314800000001,0.3223047557769725,27.92493217128456,6.137381228138987,108.77568594146098
178.90162500000002,0.3222543237220639,27.91848505769805,6.201529517464356,109.91293573271253
178.9301475,0.32220381055146874,27.91202853619855,5.805549964941198,102.89508365304054
178.95853649999998,0.32215353326051227,27.905603120049566,6.22335724342601,110.30044081117026
178.986964,0.3221031872226714,27.899169873136394,5.47815280864062,97.09299977961273
179.015448,0.32205274054147137,27.89272472431906,5.862775377980865,103.91022738722222
179.0437145,0.3220026784755444,27.886329662732603,5.704895046478837,101.11229139530364
179.07196249999998,0.32195264857375433,27.879939653298052,5.667632082831821,100.45214064504445
179.1001265,0.32190276683149477,27.873569506085833,5.6559692939721735,100.24571965218365
179.128336,0.3218528038757412,27.867189926919444,5.3597950638870815,94.99663684131394
179.156744,0.3218024886992109,27.860766323959066,5.045336976647614,89.42346285311274
179.185488,0.32175157773346386,27.854267628247147,4.474700566740965,79.30974604914186
179.21385049999998,0.32170134179093546,27.847856054295345,5.665693733532401,100.41924054063752
179.2420675,0.3216513628703206,27.841478226207325,4.600076760460062,81.53238904501038
179.270571,0.3216008757783006,27.8350365042968,4.89342460766251,86.73197881169193
179.299002,0.321550516374055,27.828612029348786,4.610560131278216,81.71867283674973
179.32737550000002,0.32150025807844296,27.822201403882367,4.860766311564755,86.15363676559407
179.3557075,0.3214500725395862,27.81580100637354,4.637786429449077,82.2017142634939
179.383738,0.3214004203044465,27.809469555233584,5.387722991285209,95.49411994493198
179.411608,0.3213510516150502,27.803175179233463,4.848935824982542,85.94468904301353
179.44003500000002,0.32130069546696327,27.796755848252953,4.108367668187698,72.81874198495551
179.4685005,0.3212502703014956,27.790328673487625,4.65916279879402,82.58154755625232
179.49705,0.321199695497487,27.78388338499305,3.858921416364682,68.39783140189456
179.5255725,0.3211491676714834,27.77744504242663,4.6540578697907105,82.49154580009585
179.553824,0.32109911906993804,27.771068708233763,4.360661703694395,77.29142451186661
179.581843,0.32104948149701656,27.76474566876643,5.124142980137475,90.82416168979391
179.610167,0.32099930271692945,27.758354627742275,3.713055381226578,65.81317483537865
179.639166,0.3209479271766373,27.751812139456494,3.6294963300889904,64.3322976547336
179.66740249999998,0.3208979015857113,27.74544251354701,5.248692600294437,93.03258571426773
179.6954025,0.32084829408294985,27.73912704832445,4.02696708450917,71.37781927151144
179.72365050000002,0.3207982462664522,27.732756462201728,4.663849345535138,82.66676860191653
179.7515855,0.32074875206557,27.72645726906699,4.625744011318765,81.9915851732358
179.780119,0.3206981964892663,27.72002394092403,3.3917191970837894,60.11859783420827
179.808863,0.3206472669381465,27.71354399166828,4.216249341284052,74.73370523186958
179.83685150000002,0.32059767501641784,27.70723516735722,4.893222047794533,86.73340450022455
179.865004,0.3205477915086296,27.70089017807253,3.836219430863865,67.99800319686781
179.893397,0.3204974808280732,27.694491797658504,4.325861017903202,76.67725210457402
179.921721,0.3204472913661736,27.68810977750218,3.876330367548742,68.70937821400797
179.949969,0.32039723552031796,27.68174568664923,4.478214181087867,79.3782187223822
179.978396,0.3203468614066305,27.675342077662506,3.4962055285956533,61.97188473211287
180.0069565,0.3202962496208881,27.668909211455297,4.220155700749803,74.80445972977559
180.0349755,0.3202465963332377,27.662599103297126,4.632926508183416,82.12127252061808
180.0629485,0.32019702347371126,27.656300135768692,4.356546531804436,77.22250001679066
180.09112,0.3201470977241252,27.64995725675699,4.255320788645266,75.42842776939727
180.1194135,0.3200969546249792,27.64358770191567,4.089664434587795,72.49226683072222
180.1476995,0.32004682366107523,27.637220627688095,4.329131493469012,76.73721580131694
180.176016,0.31999663746959633,27.630847479406025,4.017369094440862,71.21119131410967
180.20430199999998,0.3199465041482907,27.62448198426913,4.358617005525534,77.26031617434249
180.232493,0.3198965380087538,27.61813865019239,4.157472447188662,73.6950644011537
180.2605805,0.3198467541149457,27.611819379603425,4.472510988810904,79.27964296122008
180.2890455,0.3197962998828716,27.60541596405014,3.416538055241564,60.56166337740887
180.31800700000002,0.31974496431254484,27.598901668072024,3.4460481249129455,61.084940582251946
180.3463695,0.31969468921942173,27.59252289564775,4.544874424992617,80.56306200834031
180.37462449999998,0.31964460340840456,27.586169076248268,3.618443644582418,64.14120921474398
180.40319649999998,0.31959395436702037,27.579744757461405,3.9064852274797124,69.24729039157789
180.43129199999998,0.31954414871426506,27.573428346614715,4.57808163284716,81.1524017008318
180.4593375,0.31949443040424036,27.56712393483007,4.015489543543377,71.17993528850101
180.4873105,0.31944483931892337,27.560836573082668,4.737631636699056,83.98111205296591
180.51557,0.3193947389869661,27.55448557734802,3.4107518448345844,60.46049630814351
180.5439515,0.3193444210016459,27.548107931710994,4.547016372430507,80.60265785550054
180.57218,0.3192943729025411,27.54176542860203,3.750005717115164,66.47464513132996
180.60105750000002,0.31924317272179137,27.535277889344027,3.261210672290178,57.810168383309836
180.62949600000002,0.31919274946725135,27.528889747559223,4.757201110543113,84.3292335887409
180.657713,0.31914271753278506,27.522552117473133,3.731497832240303,66.14714251540033
180.686148,0.31909229762103375,27.51616628386352,4.260406400789205,75.52316551443464
180.71438849999998,0.3190422211460181,27.509824883558302,4.145063513823514,73.47872291622029
180.7425525,0.3189922788749935,27.50350140694155,4.394118776167041,77.8939006391586
180.7708915,0.31894202480967715,27.497139388375334,3.7178257395612953,65.90554383693696
180.7994635,0.3188913560512036,27.490725821327953,3.8754688768331262,68.70026940737031
180.827761,0.3188411725743287,27.484374620913652,4.293313024280689,76.10759471374033
180.855978,0.3187911303488503,27.478042229035335,4.04159268984981,71.64555296825003
180.88453099999998,0.318740490686243,27.4716351839052,3.5868268351860744,63.58407732538248
180.91306500000002,0.31868988315005736,27.465233155008224,4.142331608883779,73.43178629440753
180.941103,0.3186401537695475,27.458943142253233,4.59143280362291,81.39330953884512
180.969454,0.31858986766911146,27.452583646433347,3.4602572468032995,61.34089674354621
180.9981865,0.3185389032778492,27.446139327328904,3.8071205444847838,67.49003255372523
181.026568,0.31848855985365293,27.439774474235012,4.207113028792691,74.5810425178479
181.054854,0.31843838421160653,27.433431769200347,4.000358559422097,70.91603496939854
181.082991,0.31838847126056463,27.427123197440412,4.4702182304508185,79.24566252440883
181.1109335,0.3183389017298774,27.420858945433686,4.446444641628902,78.82444213915613
181.13930349999998,0.31828857216765005,27.41449957798356,3.622751102439669,64.22258367639799
181.168093,0.3182374966770433,27.408046919022876,3.5749425407331166,63.37524049374421
181.196379,0.31818731274675205,27.401707837566587,4.624535007038388,81.98225919807807
181.2242875,0.3181377968974178,27.395454060606653,4.31487562376995,76.49293623042027
181.252608,0.318087548364417,27.38910867527783,3.7098072858363897,65.76664051689389
181.2809815,0.31803720405849834,27.382752133503057,4.087323177333074,72.45936874614424
181.30921,0.3179871152938271,27.376428788031667,3.9351778275673337,69.76236331851806
181.33754549999998,0.31793683490998137,27.370082186093793,3.8717267169953966,68.63770851160734
181.3661025,0.317886159685594,27.363686692417893,3.4672551200131396,61.46744302118044
181.3944575,0.31783584111760815,27.357337150936164,4.19238670614214,74.32277967514607
181.422705,0.31778571152231877,27.35101238670885,3.593877353739113,63.71256881299031
181.4512235,0.31773509916254083,27.34462765581863,3.6030480647944807,63.87533430658236
181.47930000000002,0.317685269416302,27.338342576692863,4.417747566125498,78.31866465349108
181.507319,0.31763553991330806,27.332071056523898,3.59273915004634,63.69294192851862
