T(K),Fc,X,m(mol/kg),cp(J/gK),cpm(J/molK)
181.509661,0.9087067934025737,0.3176313831340372,27.331546875408353,4.652792098426702,82.48583477800464
181.539511,0.9086916013148908,0.3175784017181399,27.32486633487924,4.622262795457372,81.94485407081659
181.5691665,0.9086763300699268,0.31752576346296363,27.318230091406114,5.128365623212031,90.91747184992029
181.598578,0.9086613252898788,0.3174735562601862,27.311649202914644,5.264271903631136,93.32714707623822
181.6280845,0.9086462920029824,0.3174211783638253,27.305047809563327,5.332164213331657,94.53105485032599
181.65743500000002,0.9086311790733784,0.3173690753223748,27.298482062345567,5.796152239314557,102.75715614468857
181.6870445,0.9086162941641136,0.317316510400544,27.291859127001043,5.140599026630227,91.13544907006136
181.7168255,0.9086009051925744,0.31726363887245584,27.28519858945609,5.542784285198797,98.26591641075221
181.7467215,0.9085858337326058,0.31721056099760797,27.278513094754107,4.960443459502933,87.94208622298237
181.7767125,0.908570315523,0.3171573122447404,27.271807121244144,5.4507650175847555,96.63513397717736
181.806124,0.9085551354431024,0.3171050902198536,27.265231466237076,5.787615658484132,102.6073764179361
181.8355815,0.9085401991186246,0.3170527843501637,27.258646261768043,5.344560816719769,94.75283935204894
181.865683,0.9085249606391924,0.3169993327107086,27.25191784918056,4.79977165736616,85.0946241313574
181.8955215,0.9085093530297882,0.31694634581428377,27.245248977107554,5.548371211081059,98.36676373445434
181.925055,0.908494372665181,0.3168938982924377,27.23864900895466,4.9971121032321975,88.59378955813843
181.9549315,0.9084790661714508,0.3168408393637748,27.231973132869506,4.888921182456912,86.67593801600063
181.9843045,0.9084637225895688,0.3167886723656253,27.225410490421773,5.632062628848169,99.85143159778276
182.0138115,0.9084489214275356,0.3167362651127566,27.218818632818756,4.737185527096931,83.98631487434481
182.0434215,0.9084334287848328,0.3166836726208783,27.212204492092095,5.575324750148474,98.84611793941838
182.0728785,0.9084185107043944,0.31663134958039657,27.20562524837783,5.144644189299516,91.2107657550231
182.102774,0.9084031636546368,0.31657824528876666,27.198948798079506,5.290466458419553,93.79637463676896
182.132357,0.9083877835221932,0.3165256937393257,27.19234286173565,5.837013617991459,103.48659774576693
182.16186399999998,0.9083727462207988,0.3164732748415266,27.185754612149545,5.47012970302953,96.98226857495764
182.1916835,0.9083574326885734,0.3164202983844202,27.179097312521037,5.4156722349838775,96.01706199515604
182.22150299999998,0.9083420623819672,0.3163673194923319,27.17244073875365,5.475448546621377,97.07716142777588
182.25117,0.9083267371819383,0.3163146091073307,27.165818925574786,5.599295115724613,99.27320519250767
182.2807795,0.9083115122522506,0.31626199844945113,27.15921065882531,5.518941095657429,97.84885806822984
182.310656,0.9082962346690576,0.31620891089954745,27.1525435218445,5.165670957544519,91.58578467492052
182.340647,0.908280722924594,0.3161556173707931,27.145851557663974,5.280596514692052,93.62366762176823
182.3706535,0.908265315544092,0.3161022937516871,27.139156858938584,5.142900370384593,91.18262932210523
182.3998435,0.9082497758621302,0.3160504186489506,27.13264502096934,6.595628143608842,116.93956150231566
182.42901799999999,0.9082351993316002,0.31599856865220693,27.126137321541147,5.3367193726385995,94.61956838142727
182.458563,0.9082196639836772,0.3159460576877777,27.119547669464993,6.238921652897807,110.61587076810763
182.48805099999998,0.9082046938129158,0.3158936455051102,27.112971422378937,5.6297655773165065,99.81585556628178
182.518126,0.908189205531824,0.31584018736922465,27.106264975685832,5.559493722725678,98.57023786700684
182.547915,0.9081736171906034,0.3157872349770218,27.099623008842975,6.140325530413361,108.86876132035812
182.57744100000002,0.9081584126319237,0.315734747500287,27.09304037213785,5.983002526160595,106.07972510131788
182.606974,0.90814308435874,0.3156822449860592,27.08645685974485,6.101608024907015,108.18294954155242
182.6367245,0.908127860938608,0.3156293531708071,27.079825552640013,5.594341072183563,99.18928915994739
182.66636499999998,0.9081122957641418,0.315576654268983,27.07321945136691,6.110798583234221,108.3465596184966
182.695834,0.9080971745266648,0.31552425764556724,27.066652250871805,5.564212603439578,98.65570019597804
182.725634,0.9080817750675046,0.31547126980551027,27.060011971893147,5.323537498883412,94.38872320087754
182.7553845,0.9080662991785348,0.3154183672675677,27.05338340818051,5.37427858962164,95.28867615806209
182.784945,0.9080509391124236,0.3153657998866398,27.0467978535348,5.422261757272932,96.13973322444484
182.8144135,0.9080356483242868,0.315313393412447,27.040233463603652,5.449917963176202,96.6303850584748
182.844168,0.9080203718957164,0.31526047557116477,27.033606039834936,5.019280592228062,88.99519198769744
182.87415149999998,0.9080047724643858,0.3152071476484482,27.026928293733675,5.162987962629244,91.54350082925244
182.903845,0.9079892463561152,0.3151543327175654,27.020315809711516,5.59901250308378,99.27483260990974
182.9336035,0.9079739359847012,0.315101399366476,27.01368952261302,5.389896062076494,95.5673275071975
182.963568,0.90795833026433,0.31504809673481665,27.007018043249843,5.766757246134949,102.24970294979344
182.9931585,0.9079427937856844,0.31499545656904476,27.000430498620418,6.4904352924162385,115.08150344236918
183.022852,0.9079275648150088,0.3149426303305858,26.993820686064474,6.070830527719262,107.6418452154229
183.0526945,0.9079119091045758,0.3148895361308736,26.987178372297883,6.534435211083141,115.8623704752061
183.0822015,0.9078965131642078,0.31483703597790974,26.980611388577085,6.774469288751556,120.11878913126013
183.11180000000002,0.9078811945431844,0.31478437015420013,26.974024692996863,6.658607090528227,118.06478329021947
183.1414555,0.9078656913344532,0.3147316000096399,26.96742596588353,7.015675591824969,124.39639792520339
183.170962,0.9078503013735928,0.31467909210644,26.960861039810247,7.2590990897717695,128.7129798864502
183.200705,0.9078349413882144,0.3146261604044517,26.954244145396732,6.9073604074156165,122.47658312849711
183.230551,0.9078192927893388,0.3145730424186174,26.94760499135632,7.150466461286827,126.7875612439098
183.26026,0.9078038132743436,0.31452016527462195,26.940996961803346,7.073666831736916,125.42618084219457
183.28981249999998,0.9077882953297022,0.31446756370762047,26.93442438240439,7.329545251290388,129.96366336184306
183.3196855,0.9077729670641256,0.314414388647298,26.927781169983053,6.565944850809391,116.4242571462444
183.349593,0.9077571021817098,0.3143611491142847,26.921130935235297,7.264504917906298,128.81119208535992
183.378985,0.9077417257267304,0.3143088242433036,26.914595958612757,7.2997525610504095,129.4365789785449
183.408526,0.9077263871742526,0.3142562311040723,26.90802848230545,6.961923907634184,123.4466973015798
183.438231,0.907710842889315,0.3142033429277382,26.901425179555726,6.906887787990483,122.47118698115895
183.467642,0.9076953207093278,0.3141509751635453,26.8948878557915,7.179227595366773,127.30063170620164
183.49735850000002,0.907680071856793,0.3140980603541262,26.888283255629226,6.1952158128692325,109.85266602137577
183.5275595,0.9076642176400824,0.3140442796221544,26.881571618827873,6.187982658399199,109.72474882715099
183.5571385,0.9076484492013708,0.31399160338437676,26.874998838967596,6.847414510709088,121.41810334925866
183.586092,0.9076332340097172,0.3139400380551995,26.86856565250724,6.857151735979256,121.59112477074534
183.615675,0.9076181088358256,0.31388734850070654,26.861993208799305,5.675773969369835,100.64322080291073
183.6458,0.9076022216992496,0.313833690362792,26.85530098231579,5.859208221845599,103.89621103920113
183.6755625,0.9075865159189098,0.31378067467654885,26.84868991006832,6.095292247694763,108.08281262423007
183.7052295,0.9075709964351658,0.3137278258955911,26.84210066757541,5.919130227349312,104.95939580118075
183.734698,0.9075553783988666,0.3136753275360974,26.835556120712056,6.278325257718886,111.32906252600566
183.76383049999998,0.907540055066552,0.31362342462653936,26.82908678795462,6.337238280425281,112.37406121776658
183.7932,0.9075247777434776,0.31357109630216723,26.822565420623167,5.971013047949101,105.88035029559252
183.8232675,0.9075091932724882,0.31351752101977376,26.81588968236662,5.448791989012759,96.62041950200039
183.85282,0.907493169828156,0.31346486009763064,26.809328893192134,6.817322168889584,120.88817630812837
183.8824295,0.9074781145546535,0.3134120943238678,26.80275605044823,5.405017377221859,95.84477073906885
183.912611,0.90746201835442,0.31335830581849156,26.796056849459255,6.019652427697241,106.74415174409074
183.942156,0.9074463487886402,0.31330564832667973,26.78949952952313,6.398990171318895,113.47114449366373
183.9715675,0.9074309099242108,0.3132532254754026,26.782972427725404,6.25696042257989,110.95291379856296
184.00093700000002,0.9074153685218808,0.3132008741899043,26.776455230868653,6.372562525463011,113.00319415692087
184.030482,0.9073999616480902,0.3131482067374389,26.769899676963664,5.8520126936652055,103.77271794465122
184.06033200000002,0.907384222803808,0.3130949921714559,26.76327704445803,5.799919066445145,102.84926612961667
184.08989200000002,0.907368481810354,0.3130422911996311,26.756719340741746,6.172911020863654,109.46381993594109
184.1192535,0.9073530363015604,0.312989940759994,26.75020625063123,6.05074139913837,107.29771783630767
184.148741,0.9073374922639404,0.31293736227850805,26.743665788104256,5.989734244699738,106.21620056378062
184.1785875,0.90732190133688,0.3128841401985598,26.737046285020984,5.516872308476593,97.83122066933896
184.208472,0.9073059654673132,0.3128308468398387,26.73041894406892,5.923274586643635,105.0383134232465
184.237883,0.9072903216979988,0.3127783944269282,26.72389718333447,6.282988566964151,111.41751193445195
184.2670385,0.9072748736138696,0.312726394285004,26.717432639126383,6.541443040351904,116.00108515811449
184.296591,0.907259487612236,0.31267368261101375,26.710880637131222,6.028001903697653,106.89642662638013
184.3260785,0.9072436070372544,0.31262108338306327,26.704343613720564,6.909695790658502,122.53214904414725
184.355055,0.9072282774348414,0.31256939225408936,26.697920423314063,6.989246932069691,123.94322753168096
184.384535,0.9072129253405316,0.31251679944549987,26.691386180639732,6.378555561699724,113.11392582925593
184.414446,0.907197050020878,0.31246343411577004,26.684756980093482,6.5568355218146905,116.27580574883685
184.444174,0.9071812286090174,0.3124103916645325,26.678168908170733,6.797532670789282,120.54458304259107
184.473883,0.9071655343497064,0.3123573794944392,26.671585612773463,6.644647712539873,117.8337454742992
184.5035995,0.907149720184913,0.3123043503058291,26.665001219395894,6.739662612933394,119.51907005936256
184.533354,0.907134005153184,0.312251249647296,26.65840896936186,6.464816515705314,114.64538605357566
184.56285300000002,0.9071181377127836,0.3121986013311523,26.65187388087936,6.9731926294502795,123.66117185772409
184.59229499999998,0.9071026812267562,0.3121460511269293,26.645351968351857,6.430096903426339,114.03036860142943
184.621844,0.907086861465557,0.3120933062910363,26.638806902413037,6.7288637330433,119.32901714326218
184.651362,0.9070712786718964,0.3120406131234427,26.632269250080565,6.324439046222196,112.15732947193439
184.6810135,0.9070554789794146,0.3119876779373368,26.625702578775662,6.2935940176309835,111.6106654795686
184.7109245,0.9070397414299988,0.3119342757021727,26.61907899329593,5.691693839269208,100.93687167647128
184.74059499999998,0.9070236525519836,0.3118812990842341,26.612509213771425,6.397710790213479,113.4577688866662
184.76991099999998,0.9070081580850996,0.3118289517276586,26.606018464275564,6.078184797298817,107.79158179786369
184.7995515,0.9069924336488504,0.31177602118397607,26.599456407127853,5.936015763993149,105.27065258682286
184.8295005,0.9069765807426258,0.3117225358886104,26.592826599918798,5.720880277301003,101.45570362719944
184.85927800000002,0.9069605144416808,0.3116693530213897,26.586235301990456,6.377599677401722,113.10249717934938
184.888594,0.9069448312807912,0.3116169906314798,26.579746686150234,6.627107804343552,117.52771277695871
184.918005,0.9069292441477068,0.31156445478902306,26.573237568463835,6.383146073274686,113.20154300636447
184.94791600000002,0.9069134467770068,0.31151102192595487,26.5666183301296,5.916183330124521,104.92054165933506
184.9779875,0.9068973128858752,0.3114572983780303,26.559964117631846,6.071158147494451,107.66927552842418
185.007666,0.906881330859736,0.31140427301806295,26.55339740103142,6.37474373086969,113.05357551832572
185.0373175,0.9068656035002196,0.31135129199620204,26.54683718530401,6.059486155341523,107.46293431306687
185.066969,0.9068496370991376,0.3112983070589169,26.540277494212425,6.37142502693214,112.99540948039103
185.096575,0.9068338967043642,0.31124539950473923,26.533728390423157,6.090774754578193,108.01848604911228
185.1262155,0.9068179657523966,0.3111924263559748,26.527172175029374,6.273066245796347,111.25172316700643
185.1555125,0.9068021753710191,0.31114006321598175,26.520692448290003,6.577152670261265,116.64499416587851
185.1848625,0.906786599103514,0.31108760145476205,26.514201505384893,6.214802650257438,110.21909424709456
185.214678,0.9067707389541152,0.311034303628536,26.507608130830437,5.939614811351213,105.33898046743539
185.244593,0.9067546508473888,0.3109808238644231,26.500993274345717,6.133186820100154,108.7723123195879
185.2742255,0.9067386707026234,0.31092784509466975,26.49444139772479,6.447623527362639,114.34920886939999
185.304125,0.9067228721472186,0.3108743848774633,26.48783100173583,5.858873442086932,103.90799085175634
185.334044,0.9067065920927972,0.3108208856673583,26.481216810916205,6.493477482639079,115.16314275276757
185.363448,0.906690759288628,0.31076830330904015,26.47471697247577,6.646245932641051,117.87287935285433
185.393042,0.9066750187262907,0.3107153771220833,26.46817563394038,6.212450240833556,110.17973726502362
185.42290350000002,0.906658968593042,0.31066196839469556,26.461575674735016,6.211505351065501,110.16331833181566
185.45280350000002,0.9066429272739196,0.31060848662481594,26.4549677140634,6.0978303217369065,108.14758335923753
185.48258099999998,0.906626822177809,0.31055521979308415,26.44838732917398,6.287858209776943,111.51815004838983
185.5122285,0.9066108990984316,0.31050218135315516,26.441836169151813,6.199866364413807,109.9579089029816
185.5415745,0.9065949203610868,0.31044967818827224,26.435352117400686,6.747454708783051,119.67003977967113
185.5710775,0.9065793085934462,0.3103968900074857,26.42883386205435,6.0342172292826985,107.02068308589291
185.60108050000002,0.9065631473996232,0.31034320294436835,26.422205636696685,6.039213967096241,107.10963470705323
185.6309305,0.90654698362873,0.31028978538075197,26.415611707976254,6.361824772319271,112.83170760498994
185.6605935,0.906530973631858,0.3102366982180146,26.40905957619578,6.5382406557889015,115.96092954980725
185.69025249999999,0.906514997861514,0.31018361397085453,26.402508812662163,6.47969457058409,114.92291935177995
185.7200375,0.9064989786572568,0.3101302999209831,26.395930705444183,6.329948450781238,112.26738880864714
185.74978449999998,0.9064828533425188,0.31007704958774823,26.389361474676946,6.537739720525736,115.95311155684516
185.7792265,0.9064668615717012,0.3100243409887313,26.382860073553765,6.80611164781189,120.71331276324275
185.8087755,0.9064510521403808,0.30997143656768095,26.37633551731818,6.347594971720284,112.5813962790575
185.838446,0.9064349312425608,0.3099183102989055,26.369784607913424,6.49871107096698,115.2619549514355
185.8681355,0.906418977047064,0.3098651456667955,26.363229977656253,6.123990839493928,108.61620258703886
185.89774549999998,0.906402821898754,0.3098121190519735,26.35669336932113,6.3949890720527405,113.42302246070399
185.92719499999998,0.9063869401836372,0.30975937554949495,26.35019265663785,6.168920812523934,109.4137553785507
185.95686949999998,0.9063709451196034,0.3097062247065259,26.343642743594096,5.911701783265688,104.85196569172143
185.9865595,0.9063548062287048,0.30965304169584945,26.33708987593321,5.993046881183163,106.29505585957114
186.0161425,0.9063387807301682,0.30960004595384405,26.330561086547743,5.910647733153181,104.83391196481287
186.0454815,0.9063227440783634,0.3095474829687139,26.324086600466405,6.256198684209646,110.96309537653748
186.07524,0.9063069696089848,0.30949416397666496,26.317519999727143,5.31699014376395,94.30510866018217
186.10501349999998,0.9062904641694154,0.3094408136166375,26.310950550732453,6.214610972722033,110.22615210943586
186.13432899999998,0.906274659882784,0.3093882795296046,26.304482607660663,5.8986943035947546,104.62317692784623
186.164038,0.9062586377069038,0.3093350358061338,26.29792829884595,5.607507730870441,99.45880270956319
186.19383499999998,0.906242392473499,0.30928162983099183,26.29135503192647,5.778575371843721,102.4932971465568
186.2234675,0.9062262608796638,0.3092285141688001,26.28481850518045,5.877690834568065,104.25160491341663
186.252955,0.9062101805397778,0.3091756539216374,26.278314408267082,6.068549565465422,107.63716161356591
186.28253,0.9061941928627856,0.3091226323003616,26.271791455199605,5.986956247804159,106.19027473546022
186.31212449999998,0.9061780035435868,0.30906957117453027,26.265264644362748,6.424846308932997,113.95745215838173
186.3416465,0.9061619809192372,0.3090166354914603,26.258754262522135,6.400432043450811,113.52476270677835
186.37127900000002,0.9061458566724072,0.3089634970910821,26.25221995233117,6.428156301316947,114.0168581945263
186.4009195,0.9061296998773942,0.30891033973838095,26.24568431700909,6.472815577657509,114.80933587260778
186.430468,0.9061135530145344,0.3088573427778935,26.239169402520623,6.555083874128884,116.26889640566657
186.4602225,0.906097482634714,0.308803971687086,26.232609505861944,6.072198085247528,107.70418111605544
186.49006500000002,0.9060810970747872,0.30875043803953583,26.226030646790225,6.24773362741313,110.81804314197166
186.5199455,0.9060649166822852,0.30869683148330296,26.219443848821477,5.81677806534835,103.174365563017
186.5495015,0.9060484753503336,0.3086438024073047,26.212929012588518,6.538092775146138,115.96894830498682
186.5787335,0.9060326354143184,0.3085913500527318,26.206486012008046,6.10070260590053,108.21109874601137
186.608042,0.9060165340610826,0.3085387558270068,26.20002656610854,6.273803125045347,111.28180313656456
186.63777,0.9060005969183762,0.30848540408247566,26.19347508819367,5.443474907224594,96.55412397904735
186.6676695,0.9059840227760424,0.3084317397384967,26.18688624349057,6.041605646839425,107.16385286069195
186.69730199999998,0.9059678840310064,0.3083785498329753,26.180356658745122,5.905109995625498,104.743062470169
186.726809,0.9059515877347354,0.3083255804548698,26.1738551439278,6.3626679683783305,112.85943234712637
186.7565945,0.9059355724402206,0.30827210631269475,26.167292683851073,5.662906761147048,100.4475503694708
186.786456,0.9059189567792814,0.30821849085448294,26.160713899741562,6.360888105575613,112.82855761529447
186.81597399999998,0.905902844125641,0.30816548733020493,26.154211204124497,6.182471982764233,109.66417182505815
186.84573999999998,0.9058865906717546,0.30811203363024486,26.147654288092582,5.984348512381627,106.15020110879676
186.875384,0.9058701918435615,0.30805879415331416,26.141124656785593,6.258199067231354,111.00809478966225
186.904948,0.9058540580743528,0.30800569350335893,26.134613052915082,5.881962130926208,104.33471355529677
186.93434000000002,0.9058377327757372,0.30795289697067435,26.128139732907893,6.231128244689881,110.52858609231265
186.964022,0.9058217739287678,0.30789957462528206,26.12160294606162,5.132408476532496,91.03962755118762
186.99401699999999,0.9058051156335664,0.30784568498331405,26.114997637617417,5.371651856216465,95.28366743611109
187.0239815,0.9057887985232024,0.3077918450973611,26.10839945486499,4.819170071666092,85.48387625436686
