T(K),Fc,X,m(mol/kg),cp(J/gK),cpm(J/molK),,
181.500094,0.937042224,0.317648363,27.33368817,4.922845489,87.27332184,,
181.528048,0.937032366,0.317598748,27.3274317,5.044856523,89.43661689,,9.85828E-06
181.556582,0.937022552,0.317548101,27.32104613,3.811640495,67.57401807,,9.81386E-06
181.5851195,0.937012279,0.317497446,27.31466048,5.046447113,89.46533767,,1.02736E-05
181.6132375,0.937002455,0.317447534,27.30836939,4.621296227,81.92833642,,9.82333E-06
181.6417335,0.93699247,0.317396949,27.30199442,4.346484766,77.05658474,,9.98532E-06
181.670069,0.936982373,0.317346647,27.29565605,4.973949566,88.18083994,,1.00967E-05
181.6983165,0.936972494,0.317296499,27.28933805,4.553596268,80.72882503,,9.87927E-06
181.7264045,0.936962452,0.317246632,27.2830564,5.331315319,94.51695611,,1.00418E-05
181.754515,0.936952678,0.317196724,27.2767704,4.540497633,80.49706766,,9.77372E-06
181.7830295,0.936942614,0.317146096,27.27039474,4.541990213,80.52376411,,1.00648E-05
181.8115065,0.936932548,0.317095533,27.26402816,4.608967869,81.71143169,,1.0066E-05
181.8401855,0.936922502,0.317044609,27.25761711,4.179695669,74.10117172,,1.00456E-05
181.868483,0.936912286,0.316994361,27.25129202,5.403505854,95.79818879,,1.0216E-05
181.896342,0.936902503,0.316944889,27.24506561,5.0582098,89.67672695,,9.78311E-06
181.9241625,0.93689259,0.316895483,27.23884845,5.508029496,97.65183397,,9.91313E-06
181.9525285,0.936882827,0.316845107,27.23251005,4.037775226,71.58590946,,9.76277E-06
181.981608,0.936872521,0.316793461,27.22601292,4.158886156,73.73331038,,1.03062E-05
182.010115,0.936862246,0.316742831,27.21964439,5.213390845,92.42899964,,1.0275E-05
182.0382405,0.936852338,0.316692875,27.21336175,4.948209272,87.72780775,,9.90831E-06
182.0665265,0.936842326,0.316642633,27.20704391,4.915313621,87.14484642,,1.00121E-05
182.0947095,0.936832296,0.316592571,27.20074974,5.16141839,91.50836454,,1.00292E-05
182.1229805,0.93682235,0.316542351,27.19443657,4.76824709,84.53795505,,9.94626E-06
182.1512015,0.936812251,0.316492217,27.18813523,5.300225021,93.96985323,,1.00988E-05
182.179373,0.936802333,0.316442169,27.18184558,4.881599067,86.54811242,,9.91796E-06
182.207537,0.936792262,0.316392133,27.17555826,5.326090838,94.42898354,,1.00709E-05
182.2359795,0.936782343,0.316341599,27.16920943,4.377639955,77.61363968,,9.91977E-06
182.26459,0.936772067,0.316290765,27.16282375,5.026564053,89.11904089,,
182.292952,0.93676202,0.316240369,27.1564942,4.897219388,86.82606206,,
182.3218215,0.936751913,0.31618907,27.15005205,4.091728563,72.54519358,,
182.3503365,0.936741499,0.316138399,27.14368967,5.593076229,99.16395392,,
182.3782335,0.936731637,0.316088823,27.13746581,5.255618856,93.18117862,,
182.4065805,0.936721654,0.316038446,27.1311422,4.693005529,83.20638692,,
182.4353815,0.936711465,0.315987259,27.12471796,4.3621551,77.34067935,,
182.463736,0.936701152,0.315936863,27.11839397,5.530903687,98.06278805,,
182.491873,0.936691273,0.315886852,27.11211911,4.70502036,83.42013715,,
182.5201895,0.936681107,0.315836519,27.10580486,5.085833265,90.17222173,,
182.54859,0.936671093,0.315786035,27.09947251,4.45643916,79.01324489,,
182.5769525,0.93666086,0.315735616,27.09314927,5.064458006,89.79375887,,
182.605269,0.936650866,0.315685276,27.08683692,4.437254555,78.67355618,,
182.6338525,0.936640658,0.315634459,27.08046568,4.435401602,78.6409332,,
182.6625125,0.936630466,0.315583504,27.07407804,4.206856794,74.58898773,,
182.691199,0.936620196,0.315532499,27.06768512,4.334122516,76.84567771,,
182.71966,0.936609977,0.315481892,27.06134309,4.613262584,81.79517823,,
182.7476825,0.936599861,0.315432063,27.05509939,5.188767921,91.99940561,,
182.775694,0.936589948,0.315382251,27.04885874,4.651662682,82.47650248,,
182.804297,0.936579832,0.315331385,27.04248694,4.09815145,72.66266111,,
182.832831,0.936569489,0.315280639,27.03613113,4.880496481,86.5343566,,
182.8613455,0.936559415,0.315229924,27.02978029,4.233767082,75.0676458,,
182.8900055,0.936549078,0.315178949,27.02339766,4.684944349,83.06757772,,
182.9182075,0.936538892,0.315128786,27.01711765,5.181934744,91.87985585,,
182.946722,0.936528875,0.315078064,27.01076866,4.132918815,73.28017693,,
182.9753705,0.936518458,0.315027101,27.00439045,4.953564507,87.83118321,,
183.003584,0.936508338,0.314976909,26.99810969,5.009916676,88.83061513,,
183.0320835,0.936498225,0.314926206,26.99176588,4.463927685,79.14993928,,
183.060656,0.936487892,0.314875371,26.98540642,4.956606588,87.88589053,,
183.0887895,0.936477719,0.314825314,26.97914527,5.429998563,96.27990993,,
183.1172775,0.936467694,0.314774623,26.97280583,4.380044641,77.66328675,,
183.146006,0.936457259,0.314723502,26.96641348,5.019102834,88.99479409,,
183.174349,0.936447053,0.314673065,26.9601075,5.140452424,91.14673474,,
183.2027875,0.936436887,0.314622454,26.95378088,4.822182924,85.50366263,,
183.2313445,0.936426605,0.31457163,26.94742849,4.86853981,86.32588418,,
183.2598405,0.936416346,0.314520912,26.94109026,4.884581761,86.6105831,,
183.288119,0.9364061,0.314470578,26.93480101,5.269458368,93.43526385,,
183.316466,0.93639599,0.31442012,26.9284971,4.779527458,84.74831311,,
183.345,0.936385687,0.314369325,26.92215219,4.960670843,87.96051912,,
183.373507,0.936375435,0.314318577,26.91581388,4.902360849,86.92684517,,
183.402079,0.936365143,0.314267709,26.90946171,4.87894377,86.51187579,,
183.430842,0.936354837,0.314216499,26.90306767,4.546198915,80.61198797,,
183.459559,0.9363444,0.314165368,26.89668444,4.974378713,88.20461796,,
183.4876085,0.936334118,0.314115422,26.89045016,5.89799555,104.5822949,,
183.5160775,0.936324155,0.314064727,26.88412321,4.24814941,75.32771236,,
183.5446495,0.936313563,0.314013845,26.87777396,5.763702991,102.2016394,,
183.572775,0.936303518,0.313963756,26.87152449,5.156138939,91.42861357,,
183.6010155,0.93629324,0.313913459,26.86525003,5.574168495,98.84139671,,
183.6296185,0.936283105,0.313862513,26.8588956,4.47087942,79.27805988,,
183.6581255,0.936272557,0.313811735,26.85256307,5.730666098,101.6170146,,
183.6864035,0.936262483,0.313761363,26.84628198,4.840779422,85.83766229,,
183.7148725,0.936252093,0.313710647,26.83995902,5.242309983,92.95795362,,
183.7433035,0.936241873,0.313659996,26.83364507,4.748907637,84.20906541,,
183.77199,0.936231503,0.313608887,26.82727495,4.549302493,80.66984425,,
183.8003065,0.93622109,0.313558434,26.82098754,5.326660379,94.45450442,,
183.828909,0.93621098,0.313507468,26.8146372,3.955908884,70.14798841,,
183.857546,0.936200352,0.313456438,26.80827976,5.237002095,92.86519313,,
183.8856455,0.936190209,0.313406363,26.80204219,4.956501576,87.89146842,,
183.9140765,0.936179963,0.313355694,26.79573158,4.57167431,81.06773199,,
183.9423735,0.936169571,0.313305261,26.78945126,5.215862377,92.49113856,,
183.9707665,0.936159415,0.313254653,26.78315018,4.383984684,77.73995709,,
183.9992165,0.936148946,0.313203941,26.776837,5.06400056,89.79874816,,
184.0277045,0.93613874,0.313153158,26.77051593,4.251533344,75.39167595,,
184.0563035,0.936128235,0.313102174,26.76417079,4.794369639,85.01794408,,
184.0843645,0.93611794,0.313052146,26.75794554,5.284721448,93.71356019,,
184.112418,0.936107819,0.313002128,26.75172248,4.823191298,85.52952794,,
184.141135,0.936097522,0.312950925,26.74535278,4.02430456,71.3631004,,
184.1698595,0.93608691,0.312899704,26.73898196,4.801521823,85.14576621,,
184.197928,0.936076599,0.31284965,26.73275717,5.241454303,92.94739173,,
184.225901,0.936066457,0.312799764,26.72655407,4.94926194,87.76615879,,
184.2546065,0.936056208,0.312748568,26.72018907,3.807823541,67.52502404,,
184.2835145,0.936045523,0.312697007,26.71377972,4.490345676,79.62858501,,
184.3116975,0.936035119,0.312646736,26.70753164,5.11761148,90.7523319,,
184.339594,0.936024955,0.312596974,26.70134758,5.010059089,88.84532379,,
184.3683035,0.936014752,0.312545757,26.69498382,3.57353772,63.3711194,,
184.397135,0.936003987,0.31249432,26.68859356,4.778274001,84.73549,,
184.4253485,0.935993686,0.312443982,26.68234079,4.757609687,84.36928424,,
184.453547,0.935983364,0.312393667,26.67609186,4.879780252,86.5360523,,
184.481684,0.935973066,0.312343459,26.66985706,4.98431324,88.3900538,,
184.5105345,0.935962781,0.312291974,26.66346469,3.672636755,65.12943864,,
184.5394615,0.935951953,0.31224035,26.65705589,4.985851303,88.41785457,,
184.567675,0.935941604,0.312189995,26.65080569,5.164628878,91.58851761,,
184.5962625,0.93593129,0.312138969,26.64447314,4.383019292,77.72783472,,
184.624533,0.935920659,0.312088506,26.63821132,5.874379831,104.1757113,,
184.6524795,0.93591057,0.312038618,26.63202176,5.056637386,89.67419978,,
184.6811015,0.935900168,0.311987521,26.62568309,4.58151347,81.24861096,,
184.7098755,0.935889575,0.311936149,26.61931128,4.781377362,84.79325045,,
184.7385465,0.935879053,0.311884957,26.61296278,4.79155993,84.97407938,,
184.7667525,0.935868527,0.311834592,26.60671775,5.716566127,101.3785407,,
184.794642,0.935858339,0.311784789,26.60054328,5.415441931,96.03862941,,
184.823092,0.935848037,0.311733981,26.5942452,4.614635556,81.8371939,,
184.851588,0.935837429,0.311683088,26.58793744,5.318495957,94.31992102,,
184.8798395,0.935827086,0.311632628,26.5816843,5.07900658,90.07300113,,
184.90856,0.935816649,0.311581326,26.57532784,4.409343988,78.19718555,,
184.937277,0.935805952,0.311530028,26.56897266,5.050276642,89.56402312,,
184.9658605,0.935795509,0.311478964,26.56264751,4.582411187,81.26691231,,
184.994532,0.935784902,0.311427739,26.55630339,4.787780243,84.90928675,,
185.0229935,0.935774387,0.311376886,26.55000622,4.924437985,87.33311073,,
185.0511765,0.935763926,0.311326528,26.54377115,5.302324289,94.03505928,,
185.0798175,0.935753607,0.311275347,26.53743523,4.034456224,71.55002753,,
185.1082215,0.9357428,0.311224585,26.53115223,5.786614811,102.6244026,,
185.1360075,0.935732648,0.311174925,26.52500639,5.253918441,93.1774106,,
185.1643165,0.935722289,0.311124327,26.51874533,4.768662649,84.57172261,,
185.1929575,0.935711743,0.311073131,26.51241133,4.610513744,81.76720986,,
185.2213615,0.93570113,0.311022356,26.50613022,5.249368862,93.0975429,,
185.249586,0.93569075,0.310971897,26.49988926,4.959737511,87.96118737,,
185.278429,0.935680262,0.310920329,26.49351203,4.010378264,71.12446599,,
185.3071845,0.935669416,0.310868914,26.48715461,5.020272586,89.03530815,,
185.3355125,0.935658984,0.31081826,26.48089218,4.70293085,83.40744697,,
185.363619,0.935648447,0.310767998,26.47467917,5.405120887,95.86120946,,
185.3920575,0.93563817,0.310717138,26.46839324,4.078010235,72.32477255,,
185.4208245,0.935627378,0.310665687,26.46203516,4.762385105,84.46262288,,
185.4489235,0.93561685,0.310615427,26.45582517,5.382202025,95.45557661,,
185.477091,0.935606545,0.310565041,26.4496005,4.655377675,82.56528616,,
185.5054,0.935595957,0.310514398,26.44334501,5.111363364,90.65266871,,
185.533907,0.935585538,0.310463397,26.43704622,4.285918086,76.0131938,,
185.56254,0.935574796,0.310412166,26.43072005,4.887177681,86.67713037,,
185.5910095,0.935564275,0.310361224,26.42443045,4.627719231,82.07571456,,
185.619326,0.935553645,0.310310553,26.41817511,5.222948789,92.63278172,,
185.6475315,0.935543229,0.310260075,26.41194473,4.897913137,86.86829152,,
185.675993,0.935532673,0.310209136,26.40565824,4.783983578,84.84791134,,
185.704493,0.935522059,0.310158125,26.39936369,4.868832546,86.35303186,,
185.7331375,0.935511465,0.31010685,26.39303768,4.54415889,80.5948968,,
185.761492,0.935500735,0.310056091,26.38677616,5.488153335,97.3378035,,
185.7896675,0.935490349,0.310005648,26.3805546,4.931107446,87.45830032,,
185.8180905,0.935479743,0.309954758,26.37427882,4.985063807,88.41553151,,
185.846636,0.935469164,0.309903645,26.36797643,4.620464174,81.94920156,,
185.8750595,0.935458458,0.309852746,26.36170142,5.136211416,91.09683422,,
185.9031775,0.935447962,0.309802391,26.35549427,5.150156843,91.34443798,,
185.9314675,0.935437475,0.309751723,26.34924958,4.766299547,84.53649811,,
185.959784,0.935426842,0.309701004,26.34299946,5.078777667,90.07896565,,
185.9883405,0.935416327,0.309649851,26.33669681,4.282353508,75.95353383,,
186.0168785,0.935405506,0.309598727,26.33039866,5.073735945,89.99007415,,
186.045348,0.935394996,0.309547722,26.32411606,4.377749242,77.64596754,,
186.0739315,0.935384217,0.309496509,26.31780873,4.846984685,85.96881756,,
186.101935,0.935373613,0.30944633,26.31162979,5.548123627,98.40489247,,
186.130198,0.93536326,0.309395683,26.30539401,4.387324591,77.81648234,,
186.158774,0.935352453,0.30934447,26.29908959,4.939463132,87.60983412,,
186.186713,0.935341856,0.309294395,26.29292612,5.661567489,100.4178807,,
186.214991,0.935331518,0.309243709,26.28668826,4.338334116,76.94822866,,
186.2439255,0.935320659,0.309191841,26.28030601,4.42528498,78.49069456,,
186.2724825,0.93530982,0.309140646,26.27400745,5.094521816,90.36112633,,
186.300612,0.935299235,0.309090213,26.26780357,5.253855888,93.18749278,,
186.3291195,0.935288708,0.309039098,26.26151674,4.333272316,76.85935442,,
186.357455,0.93527783,0.308988288,26.25526825,5.521472606,97.93477796,,
186.385363,0.935267424,0.308938239,26.24911442,5.090838229,90.29684373,,
186.4138245,0.935256858,0.308887194,26.24283894,4.413263318,78.27884173,,
186.4426295,0.935246027,0.308835529,26.23648814,4.411772958,78.25263985,,
186.4710795,0.935235195,0.308784496,26.230216,5.08155856,90.13304734,,
186.4990565,0.935224622,0.308734308,26.22404853,5.323553725,94.42565733,,
186.527594,0.935214136,0.308683109,26.2177579,4.015140434,71.21810215,,
186.5565285,0.935203132,0.308631194,26.21138016,4.554628504,80.78745276,,
186.5849785,0.935192339,0.308580144,26.20510961,4.969316902,88.14322282,,
186.6132415,0.935181691,0.308529425,26.19888067,4.974313505,88.23210782,,
186.641169,0.93517103,0.308479304,26.19272604,5.694038936,100.9985614,,
186.6695615,0.935160626,0.308428344,26.18646932,4.132669945,73.30384445,,
186.698328,0.935149605,0.308376708,26.18013058,4.972028253,88.19234892,,
186.726515,0.935138911,0.308326108,26.17391992,5.240037773,92.9464925,,
186.754969,0.935128318,0.308275025,26.16765081,4.422720093,78.44934472,,
186.783446,0.935117413,0.308223895,26.16137701,5.13977842,91.16865373,,
186.811713,0.935106794,0.308173139,26.15514986,4.79286034,85.01531907,,
186.8398425,0.935096039,0.308122625,26.14895337,5.39920746,95.77092759,,
186.868201,0.935085515,0.308071695,26.14270681,4.318053664,76.59368919,,
186.8969405,0.935074577,0.308020076,26.1363767,4.59736609,81.54837893,,
186.9253255,0.935063756,0.30796909,26.13012505,4.95357321,87.86706208,,
186.95365,0.935053078,0.307918208,26.1238871,4.692663765,83.23926375,,
186.9821305,0.935042294,0.307867041,26.11761516,4.648415875,82.45463022,,
187.0108015,0.935031488,0.307815527,26.11130164,4.325668796,76.72989874,,
187.039183,0.93502055,0.307764529,26.10505224,5.208348772,92.3873895,,
187.0672935,0.935009955,0.307714014,26.09886287,4.849732808,86.02639289,,
187.0958045,0.934999214,0.307662774,26.09258568,4.463775313,79.18036672,,
187.124415,0.934988306,0.30761135,26.08628696,4.699372098,83.35973076,,
187.152438,0.93497748,0.307560978,26.08011792,5.645412004,100.1413339,,
187.1808995,0.934967009,0.307509814,26.07385272,3.896112731,69.11153259,,
187.2093605,0.93495584,0.307458645,26.06758798,5.674825821,100.6636852,,
187.2373945,0.934945361,0.30740824,26.06141758,4.711925639,83.58338944,,
187.265959,0.934934508,0.307356876,26.05513076,4.61211279,81.81308229,,
187.294657,0.934923616,0.307305267,26.04881493,4.415088423,78.31835055,,
187.3232215,0.934912652,0.307253894,26.04252883,4.812030819,85.35988314,,
187.351645,0.934901853,0.30720277,26.03627411,4.650203519,82.48949617,,
187.379889,0.934890987,0.307151963,26.03005923,5.140293469,91.18341974,,
187.4078735,0.934880315,0.307101619,26.02390179,5.104598631,90.55049332,,
187.4360755,0.934869638,0.30705088,26.01769684,4.651883044,82.52001109,,
187.4643765,0.934858791,0.306999957,26.01147044,4.848498502,86.00803587,,
187.4927315,0.93484803,0.306948932,26.0052325,4.478745366,79.44917877,,
187.5212695,0.934837132,0.306897573,25.99895464,4.439471271,78.75272231,,
187.5494105,0.934826222,0.306846924,25.99276445,5.221474396,92.6251118,,
187.577769,0.934815619,0.306795879,25.98652675,3.96923956,70.41159472,,
187.606604,0.934804532,0.306743971,25.98018458,4.196142375,74.43691802,,
187.6348175,0.934793556,0.306693178,25.97397944,5.08068106,90.12833985,,
187.663039,0.934782936,0.306642365,25.96777287,4.134845593,73.34998105,,
187.6912065,0.934771943,0.306591644,25.96157849,5.190986403,92.0856313,,
187.7192865,0.934761356,0.306541076,25.95540369,4.373721517,77.58796668,,
187.747874,0.934750421,0.30648959,25.94911761,4.32879925,76.79129243,,
187.776255,0.934739435,0.30643847,25.94287726,4.899696723,86.9190577,,
187.804659,0.93472865,0.306387304,25.93663218,4.377405335,77.65400386,,
187.8333495,0.934717637,0.306335617,25.93032443,4.400399413,78.06214507,,
187.861876,0.934706622,0.306284221,25.92405306,4.72150588,83.75875313,,
187.890082,0.934695725,0.306233397,25.91785247,5.059356079,89.75242392,,
187.9181505,0.934684947,0.306182816,25.91168242,5.040009893,89.40948519,,
187.94657,0.934674147,0.306131598,25.90543552,4.427299559,78.54027085,,
187.974852,0.93466309,0.306080622,25.89921916,5.352202898,94.94833,,
188.0030385,0.934652386,0.306029814,25.8930241,4.638987632,82.29609863,,
188.031481,0.934641393,0.305978539,25.88677308,4.880579048,86.5822099,,
188.059912,0.934630483,0.305927279,25.8805249,4.701080175,83.398119,,
188.088255,0.934619489,0.305876174,25.87429636,5.089380583,90.28691303,,
188.116934,0.934608637,0.305824457,25.8679943,4.085424887,72.47669813,,
188.1453765,0.934597375,0.305773162,25.86174451,5.542425756,98.32463362,,
188.1734375,0.934586696,0.30572255,25.85557885,4.754212395,84.34168994,,
188.2017925,0.934575718,0.305671403,25.84934889,4.896505411,86.86628267,,
188.230044,0.934564803,0.305620437,25.84314197,4.926214283,87.39358842,,
188.2582955,0.934553896,0.305569466,25.83693534,4.916537653,87.22217606,,
188.286593,0.934542972,0.305518407,25.8307189,4.87083862,86.41170332,,
188.3148635,0.934532019,0.305467392,25.82450868,4.983007732,88.40191282,,
188.3431305,0.934521106,0.305416378,25.81829953,4.880236863,86.57894278,,
188.3715995,0.934510147,0.305364994,25.81204629,4.606183435,81.71727797,,
188.40032,0.934499068,0.305313151,25.80573811,4.406069114,78.16732762,,
188.4286175,0.934487904,0.305262067,25.79952312,5.402419792,95.84369863,,
188.4565835,0.934477143,0.305211575,25.79338122,4.967232825,88.12335374,,
188.4846635,0.934466227,0.305160873,25.78721456,5.072111503,89.98426231,,
188.513205,0.934455369,0.305109332,25.78094684,3.995213424,70.8792383,,
188.541724,0.934444084,0.305057827,25.77468434,5.056981158,89.71636753,,
188.5699375,0.934433234,0.305006868,25.76848921,4.539468265,80.5353601,,
188.59878,0.934422177,0.304954768,25.76215624,3.849233346,68.29000792,,
188.6273365,0.934410828,0.304903178,25.75588636,5.095640289,90.40302794,,
188.6552985,0.934399984,0.304852658,25.74974727,4.985410044,88.44766297,,
188.683428,0.934389087,0.30480183,25.74357168,4.816168972,85.4453562,,
188.7115845,0.934378103,0.304750948,25.73739042,5.012723618,88.93276228,,
188.7397675,0.934367176,0.304700013,25.73120362,4.837157182,85.81821869,,
188.768103,0.934356162,0.304648796,25.72498361,4.785997532,84.91082241,,
188.7966105,0.934345107,0.304597264,25.71872611,4.587297362,81.38582293,,
188.8248545,0.934333949,0.304546202,25.71252671,5.372853382,95.32309449,,
188.8532395,0.934323089,0.30449488,25.70629663,4.367665959,77.48967558,,
188.881907,0.934311811,0.304443042,25.70000482,4.860013166,86.22499326,,
188.9101015,0.934300721,0.304392054,25.69381707,5.309079158,94.19247301,,
188.938067,0.934289803,0.304341475,25.68767984,5.315300099,94.30311823,,
188.966708,0.934278882,0.304289668,25.68139463,4.029297664,71.48730281,,
188.995387,0.934267426,0.304237787,25.67510133,5.270126823,93.50222029,,
189.0230855,0.934256466,0.304187675,25.66902345,6.00087834,106.4674697,,
189.051272,0.934245766,0.304136674,25.66283873,4.413188718,78.29894051,,
189.079905,0.934234415,0.30408486,25.6565563,5.170458347,91.73471712,,
189.1079925,0.934223356,0.304034027,25.6503938,5.508710248,97.7362976,,
