T(K),Fc,X,m(mol/kg),cp(J/gK),cpm(J/molK)
181.500094,0.9244506691951688,0.31764836337309016,27.333688169747195,4.2843250497661165,75.95348660548449
181.528048,0.9244388392576156,0.3175987478921345,27.32743170496726,4.38594241031961,77.75520458514434
181.556582,0.924427062625695,0.3175481010932818,27.321046130258367,3.3582008859161547,59.53529133000052
181.5851195,0.9244147342806656,0.3174974461707131,27.31466047925007,4.387147958323744,77.77703098894027
181.6132375,0.9244029462849188,0.3174475339897605,27.308369386655624,4.032795838580634,71.49514723683679
181.6417335,0.9243909638950536,0.31739694890047976,27.301994417223536,3.8037258969112107,67.43429293395324
181.670069,0.9243788478135568,0.31734664679287594,27.29565604733154,4.326554250077655,76.70346930123351
181.6983165,0.9243669926865568,0.317296498973932,27.28933804848293,3.9761996837516134,70.49239978554799
181.7264045,0.924354942484139,0.3172466323892087,27.283056401947103,4.624240499886613,81.98148303138059
181.754515,0.9243432140178643,0.31719672392176734,27.276770398165315,3.9651653515025127,70.29718092168702
181.7830295,0.9243311362393116,0.31714609618340184,27.27039474056782,3.9663488421761177,70.31836784391885
181.8115065,0.9243190570891644,0.31709553300841686,27.26402815709536,4.022103326649885,71.30703241340578
181.84018550000002,0.9243070024224664,0.31704460911358184,27.257617106967164,3.6643151277960038,64.96407060212415
181.86848300000003,0.924294743278782,0.3169943605963025,27.251292020378454,4.684098400676714,83.04388947569456
181.896342,0.9242830035459249,0.31694488874688065,27.24506560683565,4.396292091478866,77.94162382690637
181.9241625,0.9242711077887584,0.31689548328516515,27.23884844874245,4.771083227723416,84.58651639119182
181.9525285,0.9242593924674306,0.31684510703757424,27.232510053372284,3.5458091392503666,62.86381925717595
181.981608,0.9242470250362942,0.316793461493804,27.226012924095915,3.646673107286118,64.65223379473555
182.01011499999998,0.9242346950940116,0.316742830575241,27.219644390471267,4.525367516304348,80.23092934761178
182.03824049999997,0.9242228051206612,0.3166928751419121,27.21336174671051,4.30432252283606,76.31220873255836
182.0665265,0.9242107906142274,0.316642632524994,27.207043911808785,4.276849030150381,75.82534516203917
182.09470950000002,0.9241987556297976,0.3165925707425081,27.200749740147543,4.481876393371231,79.46055673795762
182.1229805,0.9241868201123248,0.3165423505068384,27.194436572923202,4.154172651854107,73.65081009341398
182.1512015,0.924174701588754,0.3164922169412638,27.188135226274948,4.597427791854373,81.5096742342305
182.179373,0.9241628000417564,0.3164421691551561,27.181845583285536,4.24851193813563,75.3238198817219
182.207537,0.9241507149535944,0.31639213252667486,27.175558263143035,4.618861854633618,81.89015983746181
182.23597949999998,0.924138811233768,0.3163415988981728,27.169209426874197,3.8284238406892137,67.87627843629602
182.26459,0.9241264800585288,0.31629076452788263,27.16282375354197,4.369133224559011,77.46304600896232
182.292952,0.9241144244244538,0.3162403694372721,27.156494198529742,4.26128479348526,75.55115437441485
182.3218215,0.92410229618315,0.3161890702804363,27.150052052224712,3.589979236897526,63.64931952472311
182.3503365,0.9240897987281776,0.3161383987406303,27.14368967088116,4.8410427269638285,85.83057306438384
182.37823350000002,0.9240779641116842,0.3160888231640836,27.137465812464438,4.559767668140805,80.84386200649254
182.40658050000002,0.9240659852351032,0.3160384456213841,27.13114219720224,4.090861323310803,72.53044728949908
182.4353815,0.9240537577240024,0.3159872588799181,27.124717961710655,3.8150899747890445,67.6412561412052
182.46373599999998,0.924041382140984,0.31593686334341275,27.118393966312755,4.788987278762832,84.90862814250194
182.491873,0.9240295272592716,0.31588685206938005,27.112119112032588,4.1006892808104345,72.70533090692935
182.52018950000001,0.924017328632054,0.3158365194128594,27.105804860504627,4.417972521433504,78.33099848690767
182.54859,0.9240053115824828,0.315786035078793,27.099472514159793,3.8934150878867433,69.03075498780737
182.5769525,0.9239930321455436,0.3157356159130059,27.09314927457632,4.400036693728173,78.01344851615922
182.60526900000002,0.9239810388051962,0.3156852761335457,27.086836920674884,3.877304891600276,68.74551830589785
182.6338525,0.9239687897520934,0.3156344592612115,27.0804656836157,3.8756986426645725,68.71724038276982
182.6625125,0.92395655886327,0.31558350391619483,27.074078035328355,3.685181974697186,65.33951749111449
182.69119899999998,0.9239442351672724,0.31553249896710833,27.067685121234746,3.7911744000354917,67.2189964721297
182.71965999999998,0.9239319724614116,0.3154818924847158,27.061343092160485,4.023729390145981,71.34249495154762
182.7476825,0.9239198329966326,0.31543206327653933,27.055099387643548,4.50325667826857,79.84495433626505
182.775694,0.9239079374597096,0.31538225121287844,27.048858739784837,4.055607073779665,71.90811324310663
182.80429700000002,0.9238957985848144,0.31533138479540035,27.042486935497475,3.594284372805059,63.72879834017405
182.832831,0.923883386478536,0.31528063854765703,27.036131127669865,4.246177005409868,75.28746237034245
182.8613455,0.9238712978213188,0.3152299244341318,27.02978028567691,3.7071724531047945,65.73075543426252
182.8900055,0.9238588932299784,0.3151789489649855,27.023397662466195,4.083091152898382,72.39626907150263
182.9182075,0.9238466704964688,0.3151287855701423,27.01711764637854,4.497188464003232,79.73875554466285
182.946722,0.9238346504611524,0.3150780637533452,27.010768656079808,3.6229444943336175,64.23789710561279
182.9753705,0.923822149879495,0.3150271009570243,27.004390448695673,4.306753887509065,76.36264536532684
183.003584,0.9238100055511824,0.314976909402132,26.99810969299476,4.353651927394172,77.19441334989253
183.0320835,0.92379787007223,0.3149262064428597,26.991765876770913,3.898597539318394,69.12606572667168
183.060656,0.92378547044674,0.31487537096021295,26.985406422221708,4.309100799193142,76.40492630728727
183.08878950000002,0.9237732629928952,0.31482531392883595,26.9791452730362,4.703532484268028,83.39885889527734
183.1172775,0.9237612324113554,0.3147746234975976,26.972805830211374,3.8285065259504902,67.88387436734908
183.146006,0.9237487102788788,0.3147235024160607,26.96641347928447,4.36099223564035,77.3256932339992
183.174349,0.9237364632398248,0.31467306462976247,26.960107504501767,4.4620542612614225,79.11787575406599
183.2027875,0.9237242642477436,0.3146224542023729,26.953780878198742,4.196766245093708,74.41420012135539
183.23134449999998,0.923711925620056,0.3145716301575906,26.947428488568875,4.235333700263,75.09827191274027
183.2598405,0.9236996151451496,0.31452091193655207,26.941090264665437,4.248638747666964,75.33440882148874
183.288119,0.9236873198970564,0.31447057810992607,26.934801005507296,4.5693068500205785,81.02054544141009
183.316466,0.923675188090266,0.3144201196246866,26.9284970970595,4.160967361380463,73.78029896355923
183.345,0.923662824421192,0.31436932549641833,26.9221521930057,4.3118568002550965,76.45602269150812
183.37350700000002,0.9236505217871244,0.31431857663482693,26.915813882182622,4.263201452513671,75.59350769508553
183.40207900000001,0.9236381721181924,0.3142677092396062,26.90946170847355,4.243623407192377,75.24657762131484
183.43084199999998,0.92362580391961,0.3142164989378038,26.90306766546286,3.9662713399715464,70.32886671185975
183.459559,0.9236132795125294,0.3141653676536706,26.896684441141584,4.323024155727898,76.65493845574758
183.4876085,0.9236009416923416,0.3141154220752122,26.89045015906026,5.092643153953257,90.30191760087243
183.5160775,0.923588986048158,0.3140647266887794,26.88412321325266,3.7177054704905244,65.92193948184787
183.5446495,0.9235762754050664,0.3140138450007008,26.877773956708264,4.980604568316766,88.31578462234154
183.57277499999998,0.9235642213746668,0.3139637556116573,26.871524486901656,4.474237280602434,79.33713892532948
183.60101550000002,0.923551888336305,0.3139134585691491,26.8652500271293,4.822532277051215,85.5133508052616
183.6296185,0.92353972545909,0.31386251298300183,26.85889560054163,3.9030590038485884,69.2094141562305
183.65812549999998,0.9235270684332116,0.313811735445291,26.85256307347819,4.952818666358649,87.82410949186502
183.68640349999998,0.9235149796102996,0.31376136289603096,26.846281978961876,4.211181658341391,74.67350967227729
183.7148725,0.9235025118576452,0.31371064716720853,26.83995902391166,4.545726826912431,80.60596662084589
183.7433035,0.923490247879273,0.3136599961703187,26.833645071934935,4.134493517006559,73.31408855329404
183.77199000000002,0.9234778036377213,0.3136088869748846,26.827274947284785,3.968090932435045,70.36359486126725
183.8003065,0.9234653080790292,0.31355843400482186,26.820987543341744,4.615826145751645,81.84970320557467
183.828909,0.9234531761610292,0.3135074684303953,26.814637197404974,3.4734667306394917,61.593103154290105
183.857546,0.9234404221485986,0.3134564383237577,26.808279755337516,4.54098114574572,80.52299453635113
183.8856455,0.9234282508446032,0.313406363034854,26.802042185205607,4.307166623497427,76.37709651752216
183.91407650000002,0.9234159551822269,0.31335569396363816,26.795731577297882,3.9864121931270207,70.68950528477045
183.9423735,0.9234034857851172,0.31330526066828557,26.789451259017515,4.523172058502935,80.20789342440676
183.9707665,0.9233912974932468,0.31325465321585066,26.78315018065231,3.829875005500236,67.9140873021524
183.9992165,0.9233787348412216,0.3132039410811022,26.776836999896524,4.396491001020177,77.96195587164578
184.0277045,0.9233664874609552,0.3131531581022403,26.770515933918908,3.7193690491483182,65.95490224540347
184.0563035,0.9233538819675045,0.31310217411038727,26.764170787625385,4.171668082986383,73.97565697013401
184.0843645,0.923341528221016,0.313052146146903,26.75794553812096,4.580231088463474,81.22088666616953
184.112418,0.9233293828410108,0.31300212849706877,26.751722478378767,4.195557908370055,74.39972108815934
184.14113500000002,0.92331702623623,0.31295092468761837,26.745352778460703,3.529752191395387,62.59319001378101
184.1698595,0.9233042916505516,0.3128997042725083,26.738981962638356,4.177368464717091,74.07760534020942
184.197928,0.9232919188370304,0.31284965047426544,26.732757168654373,4.5439150779242325,80.57783781791993
184.22590100000002,0.923279748134653,0.31279976388046793,26.726554070816913,4.3003568888427965,76.25900793996585
184.2546065,0.9232674494302144,0.3127485677289223,26.720189073669555,3.3490908216920756,59.39020959896703
184.2835145,0.923254628195347,0.3126970070996014,26.71377972095729,3.9177937359037456,69.47535758408328
184.3116975,0.923242142511644,0.3126467363673788,26.707531637413304,4.440451181506481,78.74401974157979
184.339594,0.9232299463370884,0.3125969735275121,26.701347579205084,4.3507597850535085,77.15371315761955
184.3683035,0.9232177021347894,0.3125457571465251,26.694983823463488,3.1535905526159245,55.92401119990275
184.397135,0.9232047838222588,0.3124943197601258,26.68859356157365,4.157472458133173,73.72650999815633
184.42534849999998,0.923192422981968,0.3124439816518814,26.682340792887704,4.140186934169414,73.42019022718581
184.45354700000001,0.9231800367439402,0.31239366705448285,26.67609185947197,4.241930599858802,75.22468415848098
184.481684,0.923167679502763,0.31234345893778453,26.669857062209516,4.328976325099842,76.76853998454986
184.5105345,0.923155337680264,0.3122919742513288,26.663464687094667,3.2358439092435805,57.38348532980094
184.53946150000002,0.9231423440717912,0.31224034958883123,26.657055893409723,4.330123868708078,76.78934632777133
184.567675,0.9231299252224024,0.31218999492588184,26.65080568696254,4.479039786514939,79.43041486107266
184.5962625,0.9231175485762588,0.3121389693696453,26.644473140224985,3.8276309571729654,67.87865775090303
184.62453299999999,0.923104791123567,0.31208850625571716,26.63821131956407,5.070367447090983,89.91742965193436
184.6524795,0.9230926836420856,0.31203861817981643,26.63202175668285,4.388849281482278,77.83167295140883
184.6811015,0.9230802014276996,0.31198752083025244,26.625683090963367,3.9928453240892194,70.80916350247747
184.7098755,0.9230674897749804,0.31193614862084307,26.619311277727935,4.159331665219049,73.76185246475072
184.73854649999998,0.9230548637812992,0.31188495679767214,26.612962784600796,4.167750156315732,73.9113645275023
184.7667525,0.9230422327770816,0.3118345917985502,26.60671775082997,4.938523835242262,87.58060847271068
184.794642,0.9230300067088356,0.3117847885883954,26.600543275181003,4.687521357365679,83.12952705159334
184.823092,0.9230176449678772,0.3117339810213338,26.59424520269798,4.020115038324646,71.29380639786818
184.851588,0.9230049149077546,0.31168308779510284,26.58793744408797,4.60659943715838,81.69491876114166
184.8798395,0.9229925027977968,0.3116326277593035,26.581684296375283,4.406958331756952,78.15464629247407
184.90856,0.9229799785496856,0.3115813264752471,26.575327838587068,3.8488378236008334,68.25693034075613
184.937277,0.922967142391538,0.3115300278334178,26.56897265541125,4.382881677673644,77.72812139599793
184.96586050000002,0.922954611221066,0.31147896407126135,26.562647511035777,3.992925957315494,70.81266835021786
184.994532,0.9229418828132416,0.3114277394787455,26.55630338756201,4.163999574610435,73.84679663336718
185.02299349999998,0.9229292638238906,0.3113768864728523,26.550006218379707,4.2778140721620845,75.86547158432604
185.0511765,0.9229167110299458,0.3113265275233324,26.543771145082758,4.592653251439106,81.44926586629285
185.0798175,0.9229043285107708,0.3112753465633045,26.537435230767084,3.536027206054437,62.710519068988006
185.1082215,0.9228913602788298,0.31122458548976223,26.531152226083385,4.996094343161846,88.6046875860897
185.1360075,0.9228791777731468,0.3111749253409252,26.52500638561002,4.552114205995369,80.73102375699858
185.16431649999998,0.9228667468779422,0.3111243268848829,26.518745333480698,4.147666645942531,73.55842484065428
185.1929575,0.9228540912358226,0.3110731313308104,26.512411332484337,4.015807707199634,71.2201307228856
185.2213615,0.9228413560245736,0.3110223557295118,26.50613021852414,4.5481202800703535,80.6609011459819
185.249586,0.9228289004767988,0.3109718973599796,26.499889264282057,4.3066933497898505,76.37941722162363
185.27842900000002,0.9228163144196762,0.31092032949763015,26.493512026547045,3.5154908066381707,62.347586655324925
185.3071845,0.9228032997916508,0.3108689142682909,26.487154614650972,4.357002275919781,77.2721069665848
185.3355125,0.9227907812400108,0.3108182596845911,26.480892183008418,4.0924829202818875,72.5810272426582
185.363619,0.9227781359691454,0.3107679975027429,26.474679173885818,4.6775750583553295,82.95799701360086
185.3920575,0.9227658043311278,0.3107171378767172,26.46839323580899,3.5715798431463686,63.343072952541135
185.42082449999998,0.922752853758458,0.31066568692112134,26.462035156823656,4.1418243035972395,73.45675254090266
185.44892349999998,0.922740219938908,0.31061542697100375,26.45582517331683,4.658271864964478,82.61637612147442
185.477091,0.922727853409636,0.31056504077396807,26.44960049991469,4.052516459698366,71.87326237941723
185.5054,0.9227151485492442,0.3105143976920789,26.443345007890407,4.432437177863254,78.61156220871666
185.533907,0.9227026461075736,0.31046339656865046,26.437046218799125,3.74449657580162,66.41077552333553
185.56254,0.9226897546034936,0.31041216613767686,26.43072004754543,4.245478144968761,75.29619070035564
185.59100949999998,0.9226771297196528,0.3103612243691299,26.42443045362877,4.029193899583896,71.46046505748136
185.619326,0.9226643735567808,0.310310552525727,26.41817510813376,4.525151036394565,80.25683290527745
185.6475315,0.922651874970532,0.3102600754895216,26.411944725033855,4.25421951889683,75.45188552623279
185.675993,0.9226392076119824,0.3102091364280479,26.405658238534915,4.15920933248363,73.76702260297873
185.704493,0.9226264703946244,0.3101581245385891,26.39936369459679,4.229848020061397,75.02007871388699
185.7331375,0.9226137583716516,0.3101068500410247,26.393037684541632,3.9592169105821426,70.22040514837954
185.76149199999998,0.9226008816659264,0.31005609071965495,26.386776160675296,4.7458114481968146,84.1716391702477
185.7896675,0.9225884185243494,0.310005647949624,26.380554598327485,4.281537535046556,75.93750483708827
185.81809049999998,0.922575691489083,0.30995475813767515,26.37427881999125,4.3264323128301,76.73398521340849
185.846636,0.9225629968549458,0.3099036449985607,26.367976432435775,4.022529551254982,71.34414910762054
185.87505950000002,0.9225501498162232,0.30985274631652004,26.36170141567227,4.452250527323593,78.96597224972764
185.9031775,0.922537554056531,0.3098023907660357,26.35549426933404,4.463803336910389,79.17110478147572
185.9314675,0.92252497023873,0.3097517232236032,26.349249578970074,4.143852870895421,73.49659981078347
185.959784,0.9225122101707144,0.3097010042253426,26.342999464871006,4.4041826632833105,78.11411423060956
185.9883405,0.9224995923742094,0.30964985129129147,26.33669680695505,3.7404251610626713,66.34167601107436
186.01687850000002,0.9224866066560148,0.3095987274085398,26.3303986616618,4.399841842338029,78.03758373368619
186.045348,0.9224739950993353,0.3095477221536588,26.324116060023098,3.819782414647998,67.74958660176692
186.07393150000001,0.9224610602085184,0.3094965085405824,26.31780872758959,4.210742563931908,74.68407325559238
186.101935,0.9224483359317864,0.309446330109428,26.311629792778287,4.794957225698507,85.0462754417857
186.130198,0.922435911470898,0.3093956826469446,26.305394012332645,3.827553876924128,67.88801980026432
186.158774,0.9224229436781982,0.3093444701437511,26.29908959328305,4.287599861512701,76.04792314486825
186.186713,0.9224102276420844,0.30929439520004004,26.292926115323855,4.889285681491239,86.72010130826759
186.214991,0.922397822140133,0.3092437085867903,26.286688260033745,3.7865199131379597,67.16080235467987
186.2439255,0.9223847907655384,0.30919184097283775,26.28030601001407,3.858907778820385,68.4449370361647
186.2724825,0.9223717840855818,0.30914064581782447,26.274007445054057,4.416535581560096,78.33573867639646
186.300612,0.9223590817817334,0.30909021292320155,26.26780357404343,4.54924475298529,80.68982507811324
186.3291195,0.9223464495158116,0.30903909811931857,26.261516743829038,3.7820202002098733,67.08178249057093
186.35745500000002,0.9223333961213104,0.30898828751368823,26.25526825006939,4.772118598570793,84.64342915586606
186.38536299999998,0.9223209084983623,0.3089382393828611,26.249114420809107,4.4131870162100535,78.27725817083618
186.41382449999998,0.92230823001123,0.30888719443310175,26.24283894254861,3.8484698630844285,68.26099908673875
186.4426295,0.922295232722716,0.30883552907939976,26.23648813558005,3.8471564485759187,68.23790591618418
186.4710795,0.9222822335939462,0.30878449615731574,26.230216000380196,4.405241338419648,78.13701671613539
186.4990565,0.9222695460502632,0.30873430750566694,26.224048532375317,4.606834734561982,81.71297228762432
186.527594,0.9222569635482416,0.30868310906932456,26.217757898969605,3.516417622682157,62.37206233400545
186.5565285,0.9222437589584006,0.308631193948074,26.21138015949147,3.9659196510038686,70.34526441658078
186.5849785,0.9222308069327164,0.308580143761099,26.205109610577235,4.311422871750058,76.47383218467711
186.61324150000002,0.9222180295278272,0.30852942481997847,26.198880665842015,4.315516134378112,76.54666005106601
186.641169,0.9222052359796818,0.3084793037188202,26.192726041239695,4.915218412832341,87.18415770881441
186.6695615,0.9221927517936804,0.30842834376844497,26.186469324704927,3.6140045599984636,64.10394046051864
186.698328,0.9221795265446426,0.3083767080925187,26.18013058495548,4.313398885759717,76.50977834763255
186.726515,0.9221666930252668,0.30832610825123924,26.17391992127407,4.536669862018581,80.47032665403927
186.754969,0.9221539820037952,0.30827502471069673,26.167650809663925,3.855499399141779,68.38809489932278
186.783446,0.9221408956860444,0.3082238954438441,26.161377013512677,4.452977448000022,78.9862764115021
