T(K),Fc,X,m(mol/kg),cp(J/gK),cpm(J/molK)
181.500094,0.9118591140610304,0.31764836337309016,27.333688169747195,3.8282390215622564,67.86789001051521
181.528048,0.9118453124672184,0.3175987478921345,27.32743170496726,3.9152894727330643,69.41133865463517
181.556582,0.9118315730633108,0.3175481010932818,27.321046130258367,3.0343154505884327,53.79334366074443
181.5851195,0.9118171899941098,0.3174974461707131,27.31466047925007,3.916219990499151,69.42824050022224
181.6132375,0.9118034373324052,0.3174475339897605,27.308369386655624,3.6124384184091363,64.04286925148863
181.6417335,0.9117894578775624,0.31739694890047976,27.301994417223536,3.416040990672088,60.56122735511366
181.670069,0.9117753224491496,0.31734664679287594,27.29565604733154,3.8641290246305537,68.50534741623436
181.6983165,0.9117614914676496,0.317296498973932,27.28933804848293,3.5637735522977447,63.18066746504686
181.7264045,0.911747432898162,0.3172466323892087,27.283056401947103,4.1191870575862435,73.02757368974851
181.754515,0.9117337496875084,0.31719672392176734,27.276770398165315,3.5542137216699685,63.011547534051935
181.7830295,0.9117196589458636,0.31714609618340184,27.27039474056782,3.5551764342146988,63.028799079100374
181.8115065,0.911705566604025,0.31709553300841686,27.26402815709536,3.602914367916951,63.875318645721876
181.84018550000002,0.9116915028262108,0.31704460911358184,27.257617106967164,3.296186169960293,58.437569803621635
181.86848300000003,0.9116772004919124,0.3169943605963025,27.251292020378454,4.170235934204966,73.9336756797541
181.896342,0.9116635041369124,0.31694488874688065,27.24506560683565,3.9234937283284843,69.55940731357002
181.9241625,0.9116496257535516,0.31689548328516515,27.23884844874245,4.244693036429472,75.25414669256182
181.9525285,0.911635957878669,0.31684510703757424,27.232510053372284,3.194404791741932,56.63375482888404
181.981608,0.91162152920901,0.316793461493804,27.226012924095915,3.2808066440050463,58.1657505192153
182.01011499999998,0.9116071442763468,0.316742830575241,27.219644390471267,4.033922281463624,71.51802199308902
182.03824049999997,0.9115932726407714,0.3166928751419121,27.21336174671051,3.8444034165694374,68.15820943271385
182.0665265,0.9115792557165986,0.316642632524994,27.207043911808785,3.8208028940139407,67.73998712424469
182.09470950000002,0.9115652149014306,0.3165925707425081,27.200749740147543,3.996489253057905,70.8549797390501
182.1229805,0.9115512901310456,0.3165423505068384,27.194436572923202,3.71554805290657,65.87427797817645
182.1512015,0.9115371518535464,0.3164922169412638,27.188135226274948,4.095429770798116,72.60954637686187
182.179373,0.9115232667153824,0.3164421691551561,27.181845583285536,3.7963068462560035,67.30646806858664
182.207537,0.9115091674458602,0.31639213252667486,27.175558263143035,4.1136982948896055,72.93385719117282
182.23597949999998,0.9114952797727294,0.3163415988981728,27.169209426874197,3.436126615892218,60.92102040631953
182.26459,0.911480893401617,0.31629076452788263,27.16282375354197,3.8995397757801706,69.13733537972551
182.292952,0.911466828495196,0.3162403694372721,27.156494198529742,3.8070457977189616,67.49764888130974
182.3218215,0.9114526788803416,0.3161890702804363,27.150052052224712,3.231586861336291,57.29512376980968
182.3503365,0.9114380985162072,0.3161383987406303,27.14368967088116,4.303875940132517,76.30672959816408
182.37823350000002,0.9114242914636316,0.3160888231640836,27.137465812464438,4.062731105278124,72.03149299457844
182.40658050000002,0.9114103161076204,0.3160384456213841,27.13114219720224,3.660758319591116,64.90477612274859
182.4353815,0.9113960506780028,0.3159872588799181,27.124717961710655,3.4243291712338313,60.71309670646399
182.46373599999998,0.9113816124978148,0.31593686334341275,27.118393966312755,4.259046986948319,75.51279963927158
182.491873,0.9113677818024836,0.31588685206938005,27.112119112032588,3.6690242240503252,65.05189787566599
182.52018950000001,0.9113535500707296,0.3158365194128594,27.105804860504627,3.94092913292934,69.87298188272463
182.54859,0.9113395301795632,0.315786035078793,27.099472514159793,3.4912550361823897,61.900405058908454
182.5769525,0.9113252041698008,0.3157356159130059,27.09314927457632,3.9254500422177694,69.59894111970101
182.60526900000002,0.9113112119393956,0.3156852761335457,27.086836920674884,3.477340846468354,61.65406268013993
182.6338525,0.9112969213774424,0.3156344592612115,27.0804656836157,3.475910814613033,61.62888836801263
182.6625125,0.9112826520071484,0.31558350391619483,27.074078035328355,3.3125571036811112,58.7327530369983
182.69119899999998,0.9112682743618176,0.31553249896710833,27.067685121234746,3.403354317538812,60.34279558912065
182.71965999999998,0.9112539678716468,0.3154818924847158,27.061343092160485,3.6026342517494543,63.87629261230792
182.7476825,0.911239805162738,0.31543206327653933,27.055099387643548,4.013605790805174,71.16320342943948
182.775694,0.911225927036328,0.31538225121287844,27.048858739784837,3.629853068120463,64.35926378710741
182.80429700000002,0.9112117650156166,0.31533138479540035,27.042486935497475,3.234379317909032,57.34746779253623
182.832831,0.9111972842249588,0.31528063854765703,27.036131127669865,3.7930916656408753,67.25396649276793
182.8613455,0.9111831807915384,0.3152299244341318,27.02978028567691,3.3310334326547126,59.06154803286935
182.8900055,0.911168708768308,0.3151789489649855,27.023397662466195,3.6531960128678773,64.77390575294501
182.9182075,0.9111544489125468,0.3151287855701423,27.01711764637854,4.008083978422957,71.06654104361286
182.946722,0.9111404255380112,0.3150780637533452,27.010768656079808,3.258677122633995,57.77912579990545
182.9753705,0.9111258415260776,0.3150271009570243,27.004390448695673,3.84474630218535,68.17083261826247
183.003584,0.9111116731430462,0.314976909402132,26.99810969299476,3.884891392492432,68.88284065258226
183.0320835,0.9110975150842684,0.3149262064428597,26.991765876770913,3.49479029266015,61.96615604328221
183.060656,0.91108304885453,0.31487537096021295,26.985406422221708,3.8465966641245326,68.20423757813303
183.08878950000002,0.9110688068250444,0.31482531392883595,26.9791452730362,4.1846281425706815,74.19810815780295
183.1172775,0.9110547711465814,0.3147746234975976,26.972805830211374,3.4345507294992723,60.89857981154472
183.146006,0.9110401619920252,0.3147235024160607,26.96641347928447,3.890913236952962,68.99062119438821
183.174349,0.9110258737797956,0.31467306462976247,26.960107504501767,3.977484145352533,70.52583361834918
183.2027875,0.9110116416223676,0.3146224542023729,26.953780878198742,3.7500400456009655,66.49315547242637
183.23134449999998,0.910997246556732,0.3145716301575906,26.947428488568875,3.7830436216412755,67.07854886101008
183.2598405,0.9109828843360078,0.31452091193655207,26.941090264665437,3.7943937381999118,67.27999862549288
183.288119,0.9109685398798992,0.31447057810992607,26.934801005507296,4.069198622846094,72.15288943243996
183.316466,0.9109543861053104,0.3144201196246866,26.9284970970595,3.7191387207599855,65.94600314614941
183.345,0.910939961824724,0.31436932549641833,26.9221521930057,3.848418198615565,68.23852524563362
183.37350700000002,0.9109256087516452,0.31431857663482693,26.915813882182622,3.806659026192729,67.49826664170382
183.40207900000001,0.9109112008045576,0.3142677092396062,26.90946170847355,3.7898231481285114,67.19993607429456
183.43084199999998,0.9108967712395452,0.3142164989378038,26.90306766546286,3.5520373575838393,62.983780095804654
183.459559,0.9108821594312844,0.3141653676536706,26.896684441141584,3.857770900606406,68.40516738046446
183.4876085,0.9108677653077318,0.3141154220752122,26.89045015906026,4.517391442504751,80.10164809904025
183.5160775,0.9108538170561842,0.3140647266887794,26.88412321325266,3.3388169421252005,59.20353028146285
183.5446495,0.9108389879725776,0.3140138450007008,26.877773956708264,4.421248552332631,78.39731694291261
183.57277499999998,0.9108249249371112,0.3139637556116573,26.871524486901656,3.9871646671837753,70.70037132137344
183.60101550000002,0.910810536392356,0.3139134585691491,26.8652500271293,4.285649264426131,75.99331801699645
183.6296185,0.9107963463689384,0.31386251298300183,26.85889560054163,3.497472992362194,62.017524354601335
183.65812549999998,0.9107815798387467,0.313811735445291,26.85256307347819,4.397213357867072,77.97203439396918
183.68640349999998,0.910767476212016,0.31376136289603096,26.846281978961876,3.761468969670954,66.69911494611767
183.7148725,0.910752930500586,0.31371064716720853,26.83995902391166,4.048167429439837,71.78311876577466
183.7433035,0.9107386225258184,0.3136599961703187,26.833645071934935,3.6956262887322073,65.53196222887308
183.77199000000002,0.910724104244008,0.3136088869748846,26.827274947284785,3.5529398179680034,63.0019881536718
183.8003065,0.9107095260922008,0.31355843400482186,26.820987543341744,4.108087407857588,72.8462737673036
183.828909,0.9106953721878674,0.3135074684303953,26.814637197404974,3.128865192641287,55.48247083130749
183.857546,0.9106804925066984,0.3134564383237577,26.808279755337516,4.043823324677533,71.70713839762152
183.8856455,0.9106662926520372,0.313406363034854,26.802042185205607,3.843355943172549,68.15254516077293
183.91407650000002,0.910651947712598,0.31335569396363816,26.795731577297882,3.5683678240960583,63.27648620841094
183.9423735,0.9106374000826368,0.31330526066828557,26.789451259017515,4.0283932599102314,71.4341468958888
183.9707665,0.9106231804087878,0.31325465321585066,26.78315018065231,3.434082377886973,60.89560888531838
183.9992165,0.9106085239814252,0.3132039410811022,26.776836999896524,3.9196984589002084,69.50710423654375
184.0277045,0.9105942353711144,0.3131531581022403,26.770515933918908,3.3392516956556206,59.21434959786957
184.0563035,0.9105795289620884,0.31310217411038727,26.764170787625385,3.7268812571099597,66.0883090312936
184.0843645,0.910565116257852,0.313052146146903,26.75794553812096,4.077023688810075,72.29754843553508
184.112418,0.910550946647846,0.31300212849706877,26.751722478378767,3.74724834434517,66.44985905477758
184.14113500000002,0.9105365306089352,0.31295092468761837,26.745352778460703,3.1765004991967816,56.328968308252165
184.1698595,0.9105216735923102,0.3128997042725083,26.738981962638356,3.7315446371815444,66.17177614980392
184.197928,0.9105072386432024,0.31284965047426544,26.732757168654373,4.04567277442412,71.74244216527954
184.22590100000002,0.9104930394904284,0.31279976388046793,26.726554070816913,3.8368532810782874,68.03961447603686
184.2546065,0.9104786910019168,0.3127485677289223,26.720189073669555,3.0214245933114094,53.579627856606635
184.2835145,0.9104637328945714,0.3126970070996014,26.71377972095729,3.5088280640794256,62.22305228040572
184.3116975,0.9104491662635849,0.3126467363673788,26.707531637413304,3.9567652540372564,70.16665391443442
184.339594,0.91043493739327,0.3125969735275121,26.701347579205084,3.8798317108914,68.80256270417603
184.3683035,0.9104206524905876,0.3125457571465251,26.694983823463488,2.853628290515923,50.60464819911192
184.397135,0.9104055811259686,0.3124943197601258,26.68859356157365,3.714042784709805,65.8629528536775
184.42534849999998,0.9103911601456296,0.3124439816518814,26.682340792887704,3.6991706821853017,65.59940879175774
184.45354700000001,0.9103767095345968,0.31239366705448285,26.67609185947197,3.7863237051335115,67.14513548380981
184.481684,0.9103622927532236,0.31234345893778453,26.669857062209516,3.8608785286462504,68.467458688408
184.5105345,0.910347893960308,0.3122919742513288,26.663464687094667,2.923849019447525,51.85066153368343
184.53946150000002,0.9103327347504228,0.31224034958883123,26.657055893409723,3.8617471296687245,68.48326901532347
184.567675,0.9103182460928028,0.31218999492588184,26.65080568696254,3.989333292934192,70.74605575750117
184.5962625,0.9103038066723022,0.3121389693696453,26.644473140224985,3.4309250038923063,60.84353134196309
184.62453299999999,0.9102889229774948,0.31208850625571716,26.63821131956407,4.4960728869091655,79.73294277726731
184.6524795,0.9102747975824332,0.31203861817981643,26.63202175668285,3.911857778321938,69.37272521966126
184.6811015,0.9102602349989828,0.31198752083025244,26.625683090963367,3.5723680772990587,63.35241531906831
184.7098755,0.9102454047374772,0.31193614862084307,26.619311277727935,3.715013310157352,65.8822824781828
184.73854649999998,0.9102306744115156,0.31188495679767214,26.612962784600796,3.7221717467041775,66.0094253461246
184.7667525,0.9102159382399286,0.3118345917985502,26.60671775082997,4.382779341432324,77.72494258002084
184.794642,0.9102016744936416,0.3117847885883954,26.600543275181003,4.167578090436046,73.90873965067765
184.823092,0.9101872524625232,0.3117339810213338,26.59424520269798,3.595457525992892,63.76281532399148
184.851588,0.9101724007257136,0.31168308779510284,26.58793744408797,4.0981019232769516,72.67706000144643
184.8798395,0.9101579199307628,0.3116326277593035,26.581684296375283,3.9269238687213215,69.64153569725991
184.90856,0.9101433083079664,0.3115813264752471,26.575327838587068,3.448476277465651,61.156748047260585
184.937277,0.9101283327901276,0.3115300278334178,26.56897265541125,3.9061709889382548,69.27390587985796
184.96586050000002,0.9101137130912438,0.31147896407126135,26.562647511035777,3.5718650790810917,63.3453512388056
184.994532,0.9100988632821152,0.3114277394787455,26.55630338756201,3.7184419545959155,65.94501797943022
185.02299349999998,0.9100841411278724,0.3113768864728523,26.550006218379707,3.8159398484508493,67.67430076591145
185.0511765,0.9100694962016034,0.3113265275233324,26.543771145082758,4.085745367100896,72.45941342571385
185.0798175,0.9100550499292324,0.3112753465633045,26.537435230767084,3.1800064792809164,56.39658445415854
185.1082215,0.9100399203253012,0.31122458548976223,26.531152226083385,4.4314368659324535,78.59060539976394
185.1360075,0.9100257074020044,0.3111749253409252,26.52500638561002,4.050825466822936,71.84074744144723
185.16431649999998,0.9100112046909326,0.3111243268848829,26.518745333480698,3.704098072388923,65.69178357831032
185.1929575,0.9099964397751265,0.3110731313308104,26.512411332484337,3.5910176808424836,63.68650276736997
185.2213615,0.9099815820286692,0.3110223557295118,26.50613021852414,4.04722843557653,71.77758560778335
185.249586,0.9099670505562654,0.3109718973599796,26.499889264282057,3.840233234449288,68.10672425903273
185.27842900000002,0.9099523668229555,0.31092032949763015,26.493512026547045,3.1619997658399166,56.07838712949083
185.3071845,0.9099371830902592,0.3108689142682909,26.487154614650972,3.883237768828707,68.86982040565238
185.3355125,0.9099225781133458,0.3108182596845911,26.480892183008418,3.6564486847202566,64.84787029454061
185.363619,0.9099078252973364,0.3107679975027429,26.474679173885818,4.1578994662306465,73.74141669544794
185.3920575,0.9098934383863158,0.3107171378767172,26.46839323580899,3.2098438491350105,56.92757323966452
185.42082449999998,0.9098783293848676,0.31066568692112134,26.462035156823656,3.6985665879882776,65.59541658344685
185.44892349999998,0.9098635899287262,0.31061542697100375,26.45582517331683,4.141178893237432,73.44551862745858
185.477091,0.909849162311242,0.31056504077396807,26.44960049991469,3.621901305577436,64.23610253948151
185.5054,0.9098343399741182,0.3105143976920789,26.443345007890407,3.947489901934969,70.01077184896208
185.533907,0.9098197537921692,0.31046339656865046,26.437046218799125,3.357766925732999,59.551905323026396
185.56254,0.909804713704076,0.31041216613767686,26.43072004754543,3.787121333548839,67.16694807962008
185.59100949999998,0.9097899846729284,0.3103612243691299,26.42443045362877,3.601675805616565,63.87814398364361
185.619326,0.9097751024829108,0.310310552525727,26.41817510813376,4.0267240703072185,71.41686946294593
185.6475315,0.909760520798954,0.3102600754895216,26.411944725033855,3.794438362857209,67.29730981651097
185.675993,0.9097457422139792,0.3102091364280479,26.405658238534915,3.7129420145003063,65.85210207336239
185.704493,0.9097308821270615,0.3101581245385891,26.39936369459679,3.773430501646019,66.92511218186922
185.7331375,0.9097160514335936,0.3101068500410247,26.393037684541632,3.5414012109302506,62.81005396794987
185.76149199999998,0.9097010286102476,0.31005609071965495,26.386776160675296,4.215567243578756,74.76723607703504
185.7896675,0.9096864882784076,0.310005647949624,26.380554598327485,3.8175590269267805,67.70836520763332
185.81809049999998,0.9096716400705968,0.30995475813767515,26.37427881999125,3.855981245263691,68.3900235720304
185.846636,0.9096568296641034,0.3099036449985607,26.367976432435775,3.5954333921852464,63.76911164233786
185.87505950000002,0.9096418414522603,0.30985274631652004,26.36170141567227,3.963707035167842,70.30107084590954
185.9031775,0.9096271463992862,0.3098023907660357,26.35549426933404,3.9735508325130984,70.47586678250875
185.9314675,0.9096124652785184,0.3097517232236032,26.349249578970074,3.699248102293784,65.61095817003198
185.959784,0.9095975785325002,0.3097010042253426,26.342999464871006,3.9223290892771123,69.5677917912293
185.9883405,0.909582857769911,0.30964985129129147,26.33669680695505,3.353333484463217,59.476063282640915
186.01687850000002,0.9095677077653506,0.3095987274085398,26.3303986616618,3.918488911985067,69.50009057963373
186.045348,0.9095529942825576,0.3095477221536588,26.324116060023098,3.4212346808823417,60.68074307283975
186.07393150000001,0.9095379035766048,0.3094965085405824,26.31780872758959,3.7562839061300872,66.62354160931285
186.101935,0.9095230585870844,0.309446330109428,26.311629792778287,4.256981224506193,75.50440613516076
186.130198,0.9095085633827142,0.3093956826469446,26.305394012332645,3.4277176528599402,60.79626084168217
186.158774,0.9094934342912312,0.3093444701437511,26.29908959328305,3.8219832395948172,67.78941530311928
186.186713,0.9094785989157652,0.30929439520004004,26.292926115323855,4.337655819250717,76.93597318516449
186.214991,0.9094641258301552,0.3092437085867903,26.286688260033745,3.3923669113930344,60.16978356831433
186.2439255,0.9094489225597946,0.30919184097283775,26.28030601001407,3.454352635469412,61.269395950086114
186.2724825,0.9094337480998456,0.30914064581782447,26.274007445054057,3.9322596999872452,69.746176064343
186.300612,0.9094189287453556,0.30909021292320155,26.26780357404343,4.045951085214565,71.76291957611922
186.3291195,0.90940419110178,0.30903909811931857,26.261516743829038,3.3882686886828903,60.097802539823746
186.35745500000002,0.9093889621415286,0.30898828751368823,26.25526825006939,4.236865736390907,75.1496085844397
186.38536299999998,0.9093743932480894,0.3089382393828611,26.249114420809107,3.929150435653243,69.69183991387038
186.41382449999998,0.9093596016797684,0.30888719443310175,26.24283894254861,3.4450459665660653,61.10539719520213
186.4426295,0.909344438176502,0.30883552907939976,26.23648813558005,3.4438589421409485,61.08452453744452
186.4710795,0.9093292725262706,0.30878449615731574,26.230216000380196,3.922157608993236,69.56842341063764
186.4990565,0.9093144703919736,0.30873430750566694,26.224048532375317,4.094892598371295,72.63248297170051
186.527594,0.9092997908062818,0.30868310906932456,26.217757898969605,3.1601870430348002,56.053462468129354
186.5565285,0.9092843854514674,0.308631193948074,26.21138015949147,3.545413327098029,62.88655845502326
186.5849785,0.909269274754836,0.308580143761099,26.205109610577235,3.8414985641625767,68.13855315802054
186.61324150000002,0.9092543677824652,0.30852942481997847,26.198880665842015,3.844946583678136,68.19991164225611
186.641169,0.9092394419762956,0.3084793037188202,26.192726041239695,4.35891803912767,77.31672651024992
186.6695615,0.9092248770926272,0.30842834376844497,26.186469324704927,3.2435292848746085,57.532580467922514
186.698328,0.9092094476354164,0.3083767080925187,26.18013058495548,3.8429493378225894,68.16508508143721
186.726515,0.9091944751961444,0.30832610825123924,26.17391992127407,4.034264211210506,71.55877962439222
186.754969,0.9091796456710944,0.30827502471069673,26.167650809663925,3.4503417606161784,61.20148788316244
186.783446,0.909164378300385,0.3082238954438441,26.161377013512677,3.962405324858924,70.28457832955844
