T(K),X,m(mol/kg),cp(J/gK),cpm(J/molK)
181.8994545,0.3169393614645696,27.244370011769423,3.460950561010553,61.35902415709729
181.92758800000001,0.31688939992095344,27.238082983477597,3.3198299063938443,58.857272415100105
181.956076,0.3168388067523271,27.231717410256444,3.286324986866449,58.263433506197345
181.9844305,0.31678844858242444,27.2253823405077,3.4275707892984744,60.76776434894529
182.01265899999999,0.31673831210579256,27.219076087490052,3.3835047468284305,59.986686165333154
182.0409565,0.3166880509764536,27.212755084306988,3.401734280711466,60.310055132064946
182.0689415,0.31663834281611913,27.20650453883432,3.551643462883778,62.96800662067917
182.0972125,0.3165881245325482,27.20019077130388,3.2402255726152673,57.446964470983524
182.1258605,0.31653723439168746,27.19379348005463,3.3368550283664535,59.16031158665186
182.154604,0.3164861723797997,27.187375540699946,3.180598668851473,56.39015193259173
182.1829015,0.31643590048263515,27.181057846865425,3.5739494357468176,63.36421428087623
182.210894,0.31638616827979155,27.174808890956776,3.3369309007758656,59.16217184257871
182.239306,0.31633568857862243,27.168466940054078,3.3462986384769775,59.32842990639383
182.2679925,0.31628471890570253,27.162064382344216,3.206592906967054,56.851674614540045
182.29650750000002,0.3162340516795947,27.155700762550993,3.4484925249010585,61.14064151955683
182.32469400000002,0.3161839659131961,27.14941109883925,3.3723746029038293,59.79126831588367
182.3530105,0.3161336468885233,27.143093070795743,3.362674232371182,59.619456326362275
182.3816665,0.3160827222490607,27.13669994865026,3.178046938215756,56.34622137769174
182.410223,0.3160319720992933,27.13032967919687,3.3995279022929124,60.273216770089014
182.4384445,0.31598181500504885,27.12403478013445,3.3384125491615353,59.18982007807154
182.4668185,0.3159313845578591,27.11770650494183,3.3034484950015157,58.570080079082814
182.49498599999998,0.31588131881821035,27.111424918044037,3.430899364208609,60.82995712333981
182.523539,0.3158305655118,27.105058002727397,3.0747456668362685,54.515499960651724
182.55215700000002,0.3157796942608878,27.098677239325642,3.3693017861566386,59.73817993270703
182.5801605,0.3157299129972614,27.092434111118312,3.3824413488476477,59.971318223187986
182.60827849999998,0.31567992584124327,27.086166075661176,3.29757081086837,58.466716128796456
182.636992,0.3156288775848695,27.07976593074083,3.062039884909847,54.29085641528482
182.6655945,0.3155780242020205,27.073391167235016,3.3520887970924913,59.433682043417264
182.6935525,0.3155283143042482,27.067160661675434,3.400552482330797,60.29313250165298
182.722041,0.31547765871823985,27.06081255698626,3.0750555778153887,54.522103573984225
182.75090649999999,0.3154263302511334,27.054381085814814,3.1967736753775466,56.68038726214633
182.778994,0.3153763827559303,27.048123576612596,3.493885657418504,61.948508795200596
182.8066735,0.31532715840961717,27.041957558012957,3.4314790307999528,60.84217767530511
182.835272,0.3152762972369015,27.035587435904905,3.025443238422314,53.64307721107087
182.86414150000002,0.3152249515051736,27.029157584903167,3.2984801362427607,58.48437212392188
182.892317,0.31517483755403686,27.022882915343057,3.3963980741350244,60.220699930654426
182.9204885,0.315124728204783,27.01660974011416,3.306692458535765,58.63032100494446
182.9489575,0.3150740871186053,27.010270929446676,3.2464036709390873,57.561520220417265
182.97738850000002,0.3150235110389058,27.0039411911916,3.3445348512177326,59.301643015407514
183.005686,0.3149731698607717,26.997641779684212,3.3397267474706838,59.21656275644051
183.034014,0.31492277182893813,26.991336181186853,3.353690717241604,59.46433005572016
183.062262,0.3148725135258233,26.985048988809485,3.4082530873621812,60.43195111746568
183.09060499999998,0.3148220835789378,26.978741251281573,3.3201600859291553,58.87013962138374
183.11883749999998,0.3147718476174402,26.972458700387588,3.4792720036198856,61.69154989408865
183.147219,0.31472134387660317,26.96614358928024,3.2453320162869095,57.543688589606624
183.175631,0.31467078318337294,26.95982228903634,3.4612038078492047,61.371537143624124
183.2038255,0.3146206068798917,26.95354996877798,3.3584202643616945,59.549226631503856
183.2323135,0.3145699055410582,26.94721294892968,3.298151911031703,58.480759998854346
183.2607175,0.3145193509763662,26.940895207338876,3.397080925357768,60.235082681845704
183.2890415,0.3144689360762238,26.934595847401855,3.335184553615627,59.13774367106621
183.31750699999998,0.31441826656211175,26.928265606846608,3.3154736421991933,58.78841178111696
183.345759,0.3143679743422617,26.921983427603706,3.445055969178572,61.08628140105027
183.3740295,0.31431764644131743,26.915697713838345,3.3015435462600395,58.54174934678284
183.4026395,0.3142667113401183,26.90933710308678,3.2581818244159897,57.77304490261504
183.431166,0.3142159220643815,26.902995643334453,3.3403897295967866,59.23090271219635
183.4592535,0.31416591161870494,26.896752344672308,3.4920236930875723,61.91981428884722
183.48749400000003,0.31411562596214987,26.890475606688245,3.260292580637574,57.81097548213093
183.5158105,0.31406520215498174,26.88418254860568,3.4541917936435915,61.24934262485811
183.54420299999998,0.31401464016069736,26.877873173270817,3.2186247052378842,57.07245964301679
183.5723595,0.3139644956063036,26.871616806684802,3.5737928196160436,63.37046239344406
183.60054250000002,0.3139143010176407,26.865355113390574,3.1907085561575808,56.57777929923813
183.6290955,0.31386344453909143,26.859011784763762,3.3561931920152492,59.51233427847224
183.6574885,0.31381287012127307,26.85270457003073,3.257400640449966,57.76070376727898
183.6858735,0.31376230702956037,26.84639969714133,3.3367921536234437,59.16865806736274
183.7142545,0.3137117481267214,26.840096275498297,3.238547450899949,57.42673088506119
183.7426855,0.31366109719433494,26.833782311304486,3.2985547614595974,58.49096619497996
183.770964,0.3136107149963242,26.82750277103099,3.3233137202904635,58.93017059361718
183.79916250000002,0.31356047238632384,26.821241546702808,3.357787269431097,59.54164010311032
183.8276315,0.31350974481816213,26.814920816783154,3.197870499976787,56.70609711186758
183.856131,0.31345895987507305,26.80859387350808,3.3579009326614773,59.54400392532052
183.884333,0.31340870206842186,26.80233352394487,3.369587040877776,59.751400968328696
183.9126875,0.3133581694782658,26.79603987001656,3.2839806637110933,58.233550401168564
183.941111,0.3133075108667976,26.7897314503307,3.335559861423651,59.14835688890489
183.9692445,0.31325736609420024,26.78348793460129,3.442562734329151,61.04597909818932
183.997702,0.3132066407559411,26.77717306036493,3.168917212731488,56.19366567801798
184.0262475,0.31315575543996044,26.77083920741842,3.402322977250741,60.33277225843671
184.05461,0.31310519323365393,26.764546502441334,3.2749295094716357,58.07389634757564
184.0827735,0.3130549827094533,26.758298482660358,3.5212578576577322,62.442185363452104
184.1109945,0.3130046665830777,26.752038238301854,3.247531333154435,57.58838165334337
184.139475,0.312953884636322,26.745720967103402,3.3768167546436203,59.881171610480266
184.16798599999998,0.3129030451239384,26.739397470126093,3.227759443165975,57.238102445353
184.1963485,0.3128524672365349,26.733107442961405,3.4562858749778327,61.29075757545476
184.22438649999998,0.31280246489457614,26.726889902611802,3.405142277173832,60.38399561937901
184.2525235,0.31275228286197265,26.72065092825877,3.408495806749839,60.44363913179286
184.281069,0.3127013690498661,26.714321905143663,3.2026647893930553,56.79375703262327
184.30967950000002,0.31265033603117226,26.707979004538828,3.401090508950876,60.31267357391964
184.3379885,0.3125998375646842,26.70170347055389,3.3912484785507875,60.138316548872105
184.36608,0.3125497238838601,26.69547666602646,3.54563046209636,62.87621333329283
184.394236,0.3124994919290753,26.68923607652715,3.376445311447339,59.876152477856
184.422457,0.312449140772749,26.682981593084754,3.525917947576526,62.527005084131225
184.4512125,0.31239783262773924,26.676609177391832,3.1109686796454317,55.16864896177996
184.4797885,0.31234684140093455,26.670277064737476,3.6341883565942754,64.44740253554447
184.5078875,0.31229669805509286,26.66405115803363,3.3577462414561605,59.54524851884844
184.5364825,0.3122456662310612,26.657715868066642,3.3567369538330856,59.52752515449593
184.564734,0.3121952440950124,26.651457190463546,3.5427821531341928,62.82698624871598
184.59299299999998,0.31214480524221117,26.645197355904877,3.3510066054276995,59.426249957416665
184.62133999999998,0.3120942059595752,26.638918533173133,3.4995365974227868,62.06043955527088
184.649859,0.31204329624735894,26.632602121627055,3.2669969453551144,57.93677406944279
184.6786335,0.31199192695738637,26.6262296373474,3.3574532727256683,59.54109866234114
184.706923,0.3119414200850861,26.61996506574934,3.5168847892538655,62.368639735634204
184.73502200000001,0.3118912499511995,26.61374317163521,3.4411718917760754,61.02611920865498
184.763205,0.31184092644798234,26.607503168662856,3.446694683449106,61.12423823200063
184.791483,0.31179042988810773,26.601242624328282,3.372031691872998,59.80032671104389
184.81976500000002,0.3117399227405417,26.594981686277272,3.4330877839745346,60.88328560065004
184.84798999999998,0.3116895139378217,26.588733855347424,3.396936959193528,60.24235229331325
184.876566,0.3116384747392991,26.582408823407476,3.2455257756623497,57.55734783110927
184.90520700000002,0.31158731587458144,26.576069903017952,3.3612578694257715,59.60995905575145
184.933497,0.3115367804470006,26.569809155521362,3.430369228553828,60.83578606519089
184.96174100000002,0.31148632368473866,26.56355907064234,3.381232927229478,59.964554044318085
184.99032449999999,0.31143525683909334,26.557234347334862,3.2424856296528257,57.50410605941041
185.018534,0.3113848546312517,26.550992860482193,3.5821516876710016,63.52812387899532
185.04665949999998,0.3113345989879047,26.544770432864265,3.2763186844338157,58.10445789884173
185.075617,0.31128285301200986,26.538364427870633,3.1276672684773676,55.46833822940914
185.104071,0.31123200311592153,26.5320702927011,3.5553560982089785,63.05346938442593
185.13203650000003,0.3111820226694671,26.525884682489057,3.3846290450008425,60.02583497285586
185.160269,0.311131561458226,26.51964048311602,3.400306899253361,60.30405444290817
185.18834149999998,0.31108138264489,26.51343213545531,3.4677213096845416,61.499819110665044
185.21688699999999,0.3110303546858697,26.507119655098435,3.148268710189729,55.83451152222444
185.24544,0.31097930960263004,26.500805991826187,3.462066463490221,61.39989185683985
185.2735775,0.3109290036712185,26.49458466794008,3.3623981233890534,59.632442560720335
185.30203899999998,0.3108781147728725,26.48829217282042,3.2831809820437745,58.22768993179534
185.3303665,0.31082746175676873,26.482029767755748,3.439686631212255,61.003518301517154
185.358839,0.31077654572115987,26.475735772359272,3.2152683135742275,57.023582617668225
185.387415,0.3107254408156931,26.46941936482233,3.3906903433628597,60.134912971264974
185.41540750000001,0.3106753757427108,26.463232385526325,3.5361621480932026,62.71508007566276
185.4436365,0.3106248839732227,26.456993585773766,3.263651320884804,57.88217303816954
185.47216650000001,0.31057385001925625,26.45068872191141,3.3625744791338277,59.63679051104333
185.500517,0.3105231333527798,26.444423981214054,3.350346884913847,59.420102178817544
185.5290435,0.31047209800111786,26.438120805434583,3.2673138385606393,57.94763934922766
185.55757749999998,0.310421045368496,26.431816428814592,3.3535638420086364,59.477506367367894
185.58596999999997,0.310370242057148,26.425543766914387,3.351219512659898,59.43610221672871
185.6141835,0.3103197552181671,26.419311095212525,3.4578625998586405,61.32766652811454
185.6422065,0.31026960549185395,26.4131209438653,3.454389713507759,61.266249417874675
185.670527,0.3102189195224683,26.40686551679489,3.2844126888589233,58.251746698196506
185.69913350000002,0.310167717758938,26.400547366129498,3.2815600458625194,58.201324424848316
185.7276215,0.3101167241532574,26.3942558336751,3.3347019917031577,59.144016856626706
185.75588850000003,0.310066122237431,26.38801354680176,3.396554240487526,60.241199180785635
185.7840945,0.31001562563379637,26.381785164046775,3.3682514485462156,59.73939537955567
185.812567,0.3099646479699254,26.37549837071852,3.255799344226211,57.745111521045615
185.84117700000002,0.30991342011157724,26.36918165796681,3.2976391483387246,58.487358169110585
185.86936,0.30986295287579785,26.362959651675137,3.4918956465387017,61.93289683336672
185.897459,0.309812632146935,26.35675661389423,3.350150616520277,59.41905343554751
185.92562700000002,0.309762183916854,26.350538766920582,3.464297315927901,61.44376452167352
185.95417650000002,0.30971104839697844,26.344237137573568,3.1568905583016256,55.991675605739665
185.98262649999998,0.3096600870415784,26.337957899990037,3.5213032061375493,62.4552045885982
186.010943,0.30960936078964746,26.331708551440006,3.2260474414742366,57.218600609414324
186.0396525,0.30955792639830554,26.325372899456944,3.3085776980833677,58.68256753376936
186.06796150000002,0.30950720544737154,26.319126052889185,3.4459811409471426,61.11980142768518
186.0962585,0.309456501940647,26.312882271966927,3.314529020417617,58.788466627829955
186.1245175,0.3094058624631713,26.306647290899562,3.4547866641059186,61.27633874114331
186.153048,0.3093547323340049,26.30035282604098,3.1572085231430917,55.998464625730364
186.1813495,0.3093040084873696,26.29410929815306,3.5743045795732025,63.396558061300794
186.20894099999998,0.3092545531936298,26.28802279753667,3.5322561335140183,62.65093364959363
186.2372,0.3092038974034388,26.28178945438418,3.1992605723605845,56.74482234326444
186.2657685,0.3091526826254163,26.275488255439594,3.353026534103198,59.47232244910108
186.294127,0.30910184013228564,26.269233784511734,3.305859541170059,58.6358975870111
186.322577,0.3090508293928536,26.262959541521255,3.3033856431526494,58.59219033909789
186.35082849999998,0.3090001703862284,26.256729477919134,3.423769377353877,60.72761528653153
186.3790685,0.3089495278276519,26.250502350077,3.323994646163866,58.958076536466805
186.40765199999998,0.3088982650110679,26.244199883312614,3.2493530567593547,57.63432025585212
186.43616300000002,0.30884712793350405,26.237913806904544,3.371571600136382,59.80230723314172
186.4642815,0.30879669063508575,26.23171466266439,3.4674717409408227,61.503487831576564
186.49244549999997,0.30874616752185297,26.22550587805304,3.346249710287913,59.35351250559816
186.5206015,0.30869565454533837,26.21929924639222,3.4645483717532315,61.45199291386877
186.54889150000002,0.3086448969103021,26.21306346660279,3.2634414334240427,57.88505303344912
186.5772195,0.30859406680672125,26.20681970128734,3.4315263415093584,60.86662498793342
186.605444,0.30854341813544045,26.20059913545501,3.3129580639972454,58.76369415989092
186.6339705,0.30849222317063574,26.19431240100535,3.2702677201333854,58.0066439616031
186.66222249999998,0.30844151650592666,26.188086547257626,3.469489469761469,61.54053597201579
186.690512,0.30839073820502394,26.18185281274809,3.258245794575531,57.79374193486723
186.7190075,0.3083395857488677,26.175574070978975,3.3617598195256972,59.63001695265672
186.747477,0.30828847554686956,26.169301443206834,3.274904806667069,58.08957646744385
186.77599600000002,0.3082372720376321,26.16301829350316,3.338958658370599,59.22592498464917
186.804068,0.3081868667250125,26.156833998434113,3.5240608686377635,62.50942046184599
186.832312,0.3081361482002827,26.1506121844757,3.251706355076652,57.678593307281055
186.8607735,0.3080850346535882,26.144342834651862,3.4112446380144608,60.50865299402209
186.8892235,0.3080339372803741,26.138076394350062,3.2668845945614327,57.948165297525456
186.9177995,0.30798260908418945,26.131782578244888,3.350116413394969,59.42471124246017
186.946089,0.3079317910218141,26.125552233984667,3.4286098510700405,60.817213987449215
186.97425299999998,0.3078811939638552,26.119349894035206,3.4245052381573964,60.744582773348654
187.002894,0.3078297354127093,26.11304287971466,3.178025405579783,56.372639584426004
187.031546,0.3077782524880776,26.10673381643035,3.4215547302016516,60.69260595077334
187.059683,0.30772769043281606,26.100538516020237,3.4572858855496653,61.326594957229
187.08786600000002,0.3076770412315805,26.094333444988525,3.398809096985426,60.289488304905596
187.116232,0.3076260586060773,26.088088442726384,3.3558069188827173,59.526872615608426
187.144827,0.3075746597668051,26.081793388212397,3.2712620191839292,58.027347448169294
187.173224,0.3075236122151062,26.075542282457064,3.461144815123778,61.39576779664046
187.201216,0.3074732881951018,26.069380679941347,3.4900444212337467,61.908585013040536
187.22948300000002,0.30742246522095545,26.0631588949683,3.3082365857403158,58.683736016151784
187.2577845,0.30737157561403766,26.056929867631446,3.4677812931680125,61.51402816601832
187.2863985,0.3073201193972443,26.05063241630066,3.1442715787766673,55.77554274574166
187.3150585,0.30726857571209015,26.04432519812321,3.440724791705707,61.034442373525714
187.3435005,0.3072174193793205,26.038066306858024,3.2521227689198136,57.68903258711566
187.3718665,0.307166395054323,26.031824487215104,3.4729086389610635,61.60570886442538
187.399966,0.3071158454769153,26.025641650085575,3.383188741224943,60.014347963935776
187.42858,0.3070643655925283,26.01934595206173,3.1874363419142124,56.54206596613576
187.4564575,0.30701420613620695,26.013212634602667,3.800725068059464,67.42141500950028
187.4842325,0.3069642265584096,26.007102195086173,3.238475610992572,57.447785052656876
187.512915,0.3069126092067762,26.000792448483026,3.2884714044287513,58.33484107204531
187.541334,0.3068614612513488,25.994541008231092,3.3877817166742377,60.096703290471474
187.56998249999998,0.30680989539530007,25.988239424923577,3.1774273664879176,56.36534252155171
187.5984445,0.30675866039308286,25.981979201933598,3.4962220741542174,62.020721038869084
187.6267995,0.3067076131962973,25.975742846414676,3.236073515885609,57.40602246461946
187.65555799999998,0.3066558346678377,25.969418083385495,3.286975638436889,58.309169796012725
187.68405,0.3066045310670711,25.96315226455156,3.397322845176396,60.266847647775016
187.7120885,0.3065540392831252,25.956986499892768,3.5574169765177523,63.10702286626407
187.74009949999999,0.3065035922837118,25.950827100696532,3.431628103906082,60.87576011472797
187.768389,0.3064526388946133,25.944606782698145,3.4149413242720086,60.579920870709536
187.79692699999998,0.3064012330012585,25.938332149745957,3.305419974758005,58.63722225678089
187.82540749999998,0.3063499257426134,25.932070483545083,3.454781531219303,61.28703545022094
187.853674,0.3062989991084382,25.925856185671247,3.432236203968229,60.88726509581369
187.88219249999997,0.30624761350151863,25.9195868065936,3.3325304542086474,59.118677652147554
187.91039849999999,0.3061967860595847,25.913386440873417,3.6226092064970157,64.26482694461338
187.938513,0.3061461186307712,25.907206499036736,3.393502230719422,60.20066134993627
187.96686749999998,0.30609501373993653,25.900974113863988,3.4945041800789944,61.99261638046519
187.995516,0.30604337390602027,25.894677423281315,3.243704811773026,57.543598688278685
188.0239775,0.30599206610490126,25.888422147068784,3.611614743521863,64.0705414495362
188.0521645,0.3059412481822981,25.8822275068438,3.4056170308021025,60.416290580219595
188.0809045,0.30588942816309417,25.875911646378576,3.3199347857234565,58.89644712818617
188.10923200000002,0.3058383468533323,25.869686743246554,3.638925701822378,64.55561316703448
188.1371825,0.3057879404346456,25.86354498212396,3.522827023471794,62.49616988048034
188.1658425,0.3057362493919203,25.857247622430954,3.247130233774355,57.605384979187036
188.1943495,0.30568482916362577,25.850984185529445,3.6043527110998523,63.94284352865371
188.222456,0.3056341263195939,25.844809040688435,3.45968005558176,61.376464577126654
188.250967,0.30558268866194876,25.838545323692127,3.375731598728659,59.88735414737667
