T(K),Fc,X,m(mol/kg),cp(J/gK),cp_err(%),cpm(J/molK)
175.11875,0.7598651150622436,0.328955077791001,28.783582802258703,1.9723779923697868,0.4729311547465186,34.943977306861115
175.148352,0.7598261388473774,0.32890258415279594,28.776738497113037,2.247560063056682,0.4775710595376097,39.819408816353146
175.177889,0.7597884568217461,0.3288502074715226,28.769910508295606,2.0842798832863965,0.4720121988383973,36.92672993893457
175.2074455,0.7597496266616466,0.3287977978840915,28.76307929636482,2.3273979774599414,0.472106115631479,41.23412457311072
175.23710499999999,0.7597118724861216,0.32874520731961426,28.75622556763389,2.1291045676040308,0.4682736511635503,37.72110747784981
175.266867,0.7596727529732831,0.32869243666272085,28.74934944819778,2.3842544539666277,0.47050695053402586,42.24169803681756
175.296118,0.7596347111774472,0.3286405736505401,28.742592649870947,2.4941131913537893,0.46784354892985713,44.18819109489476
175.325503,0.7595968945579952,0.3285884746268436,28.73580615456707,2.4509539993505687,0.4629089889581368,43.42367037930339
175.35510499999998,0.7595584833277945,0.32853599244379456,28.728970813140748,2.530229693933706,0.4612925992972213,44.8283373758245
175.384497,0.7595200817385316,0.3284838841230859,28.722185221026134,2.718098105443347,0.46185190832556466,48.15696589382036
175.413851,0.759482193481785,0.3284318446922457,28.715409650739904,2.7245135385220975,0.4573074081328579,48.270773990125775
175.4436055,0.759443868454962,0.3283790967779933,28.70854290694528,2.70161643512202,0.45161336698024396,47.86524685001209
175.47341749999998,0.7594049179244843,0.32832624845707836,28.701664173772954,2.8972076833199276,0.45230162530522655,51.330744736385824
175.50278350000002,0.7593664210595705,0.3282741922454219,28.69488959963932,3.1606587212529975,0.4512403383763513,55.99855820774005
175.5324235,0.7593286069928166,0.3282216517892107,28.688053070738256,3.0124174794179654,0.44209241948780104,53.37227508549018
175.5623455,0.7592893754060929,0.32816861292977284,28.681152774506238,3.3066795195264658,0.4403734062988919,58.58601936297818
175.592127,0.7592508057621584,0.32811582456947835,28.67428614965193,3.4168017075924353,0.4349230837242242,60.53729103087665
175.621428,0.7592119165065746,0.3280638893019906,28.66753154662837,3.9699553357314854,0.43882780682419154,70.33801839916416
175.6507745,0.7591745745909781,0.32801187475648474,28.660767679319378,3.8266399540131033,0.42553702396792953,67.79901941954556
175.680651,0.7591355443045447,0.32795892221347034,28.653882912203162,4.156563076167616,0.4224205123005047,73.64470258843124
175.7100355,0.7590968005487204,0.327906843030471,28.64711275551057,4.703196533212736,0.4242327227326833,83.33003586228884
175.7395995,0.7590590286090618,0.32785444704430344,28.64030247396303,4.700703959196305,0.4087861962289066,83.2861247393175
175.7692475,0.759019794511078,0.3278019035078259,28.633474080419216,5.425235834482588,0.4105778162155408,96.12352566181421
175.79872,0.7589817813925019,0.32774967229410856,28.626687333289,5.692550723607388,0.40128134609451027,100.86007511933441
175.828097,0.7589429816152035,0.32769761159087085,28.619923791080815,6.541461090842913,0.4010335103160515,115.90133666335302
175.8573935,0.758905195152558,0.3276456947862389,28.613179986739656,6.953217423854063,0.3906207813815307,123.1971871752805
175.8871365,0.758866582557016,0.3275929879797011,28.606334629294135,7.587620736095366,0.3822587931965102,134.43796107658886
175.916567,0.7588276088517968,0.32754083616568125,28.599562408321535,8.822566998678122,0.38483112449846973,156.31928997067473
175.94591350000002,0.7587897888718962,0.32748883439186394,28.592810716769463,9.40766231239365,0.37369684800052455,166.68657811298422
175.97569900000002,0.7587510114372191,0.3274360559093238,28.58595924819635,10.319006465482133,0.3676698538233807,182.83448697993603
176.00523650000002,0.7587120226173858,0.32738371804222016,28.57916604017268,11.719366680521011,0.36966502438539767,207.64701226269472
176.034636,0.7586738698009879,0.32733162583898595,28.572405767837513,12.618383544073701,0.3627930170838185,223.57671581069167
176.064322,0.7586352183760524,0.32727902712937756,28.565580825856703,13.665034882894203,0.3582060488394642,242.1223667225267
176.09363050000002,0.7585962939980201,0.3272270983888333,28.558843862538026,15.54085804683004,0.3652209282353898,275.35975076318044
176.1227595,0.7585586064436747,0.32717548875229785,28.552149328459866,16.430774992051127,0.35673652743532136,291.1285566568157
176.15261700000002,0.758520128454211,0.3271225894723971,28.545288574293952,17.154357349093715,0.3459026776868087,303.95027215897903
176.182501,0.7584805126488998,0.32706964432263813,28.538422951108075,19.17765845989504,0.3527199100427954,339.8012637408693
176.21184749999998,0.758441941979871,0.32701765248966047,28.5316819998405,20.905252610300575,0.35407024202230575,370.41292446130393
176.241129,0.7584037092373269,0.3269657768174503,28.524957147273934,22.369068655005115,0.3512590281146641,396.35095925158333
176.27023150000002,0.7583652857409456,0.3269142192405059,28.518274557752235,24.52672771390236,0.35551087347159177,434.58317866672536
176.2995975,0.7583274990631018,0.32686219581858494,28.511532625741527,25.229619124511864,0.34316814365488196,447.0388833544771
176.328921,0.7582883623082772,0.32681024864000696,28.504801614153077,28.219361747981715,0.35479963723582064,500.01506932412497
176.3579545,0.7582506643475876,0.32675881612243846,28.498138312670097,29.481303926398937,0.3478727876858652,522.3768021376404
176.3874725,0.7582122644384764,0.3267065262392963,28.491364979437446,30.853102695978702,0.3423988781455225,546.6852403063368
176.417204,0.7581732734021159,0.3266538590701284,28.48454383812811,32.80087624664257,0.3419429322246141,581.199549083352
176.44663450000002,0.7581342901411948,0.32660172599173526,28.477792919909433,35.56558787342596,0.347961872564644,630.1894383200114
176.475859,0.7580960651786421,0.3265499586807688,28.47109040058881,37.35372347034966,0.34548904735275554,661.875528930256
176.5050185,0.7580575990696632,0.3264983073450549,28.464403923935297,39.87401197230193,0.34863796589440105,706.5349561338902
176.5343345,0.7580195217765632,0.3264463796195389,28.457682701239957,40.99395035513608,0.3413045927355193,726.381525569845
176.563517,0.7579806214788481,0.32639468916761544,28.45099321903434,44.529825316625995,0.3511960397384991,789.036884275932
176.59279850000001,0.7579428718912586,0.3263428241471253,28.44428217695362,44.79366523914989,0.3385083295566588,793.7143142227266
176.62212599999998,0.757903687936224,0.32629087842287396,28.43756172796256,48.62821520171327,0.349556693637218,861.6626009806018
176.651385,0.7578657945360614,0.32623905478216014,28.4308581060789,49.157271259258025,0.3395327612512049,871.0397578045367
176.680743,0.757826766902767,0.32618705653196767,28.42413293405301,52.48833299178672,0.3468285272909675,930.067124869736
176.709845,0.7577885900690567,0.3261355124172874,28.41746752178291,54.3023149769925,0.34502022693804824,962.2128423857978
176.739115,0.7577502122581492,0.3260836714482945,28.410764750309056,55.98237603044177,0.3426835890507387,991.9857416260235
176.7687365,0.7577115701075774,0.3260312086235638,28.403982625844804,56.955322603335496,0.3367675184120387,1009.229026391468
176.79799500000001,0.7576722434068779,0.32597938938051557,28.397284736748105,61.70437237170686,0.35091949369957637,1093.3838470150258
176.826647,0.7576345334448586,0.32592864492811147,28.390726767550753,63.702630680648305,0.3505407491591769,1128.795716291813
176.85563100000002,0.7575967805858709,0.32587731309934703,28.384093893163072,64.18787176776502,0.342912616346986,1137.3974415720252
176.885073,0.7575581730935168,0.3258251707511993,28.377357321111916,65.48035433607646,0.33965740098628683,1160.3034869075336
176.914431,0.7575191899602672,0.3257731777703542,28.370641084180917,68.48653743192956,0.3446757836247485,1213.5763045402957
176.94336900000002,0.7574807801492629,0.32572192917988546,28.364022018129887,71.41717511181805,0.34930932161630335,1265.510724151453
176.972563,0.7574428808722112,0.3256702277760022,28.357345487944283,70.89030803611821,0.3386412778622587,1256.1783965409193
177.001597,0.7574037722230015,0.3256188102637932,28.350706633786512,75.97657520123975,0.3530776131658897,1346.3111958038521
177.030421,0.7573662719722623,0.32556776516336133,28.344116865467498,75.4186723839506,0.3433549373140165,1336.429045421445
177.059584,0.7573276938501509,0.3255161202242102,28.337450674862016,77.32470541757637,0.34483084129244507,1370.208288306724
177.0883735,0.7572892754987121,0.3254651371995127,28.330870923640646,80.5148967558674,0.35219179058978717,1426.7432717712302
177.117312,0.7572516603424956,0.32541389077718846,28.324258181203952,79.07051834758964,0.34131924491270776,1401.1526805426447
177.146685,0.757212824854137,0.32536187536988687,28.31754723773617,80.27755770926187,0.34178516352231325,1422.5460372907278
177.17596650000002,0.7571740380770821,0.32531002243964763,28.310858286716144,81.62573593741915,0.3433763570777462,1446.4405457358157
177.20504599999998,0.7571354203643081,0.3252585276408859,28.304216551571596,83.24679396099205,0.34646988631465486,1475.170719678387
177.2339655,0.7570971437970817,0.3252073165742266,28.297612417166924,84.09425651475402,0.3471228664293164,1490.1925386375733
177.2630565,0.7570589255714034,0.3251558021981355,28.290970179484823,83.4200921372578,0.342440127182553,1478.2503976690275
177.292315,0.7570201715441558,0.32510399158555636,28.284290767978046,83.96701199016681,0.3431372286964752,1487.9465666620104
177.321547,0.7569814861749374,0.325052228255048,28.277618476116313,84.12540667528236,0.34303978273344976,1490.7578664454147
177.350695,0.7569427781516221,0.325000614007222,28.270966419940667,84.66170524412698,0.3451079526841353,1500.265896929054
177.37983150000002,0.756904291173012,0.3249490204430556,28.264318046097934,84.00880501018449,0.3433089916709664,1488.7004671712607
177.4089605,0.7568655895083882,0.32489744046233787,28.25767243840558,84.16933297903005,0.345268831753625,1491.5495820149877
177.43788,0.7568270984127519,0.32484623173518895,28.251075667809882,84.43819949966945,0.34828781545317855,1496.318535411562
177.4670665,0.7567889281204053,0.32479455049113926,28.24441904152422,81.44809199498059,0.3391243169573315,1443.3355237969872
177.49647,0.7567497049248852,0.32474248525600813,28.237713986899664,81.75919347733398,0.34318393765906235,1448.8528794209835
177.525408,0.7567109349285942,0.324691244523175,28.231116122632674,82.77885630837122,0.35010784898148084,1466.9266362655194
177.5541935,0.7566729224547499,0.3246402740373282,28.2245540492113,81.43022166436036,0.3468092721834274,1443.031681643749
177.5833115,0.756634533191538,0.3245887149943846,28.217917211058257,80.17130129142076,0.3422471187154469,1420.7264734354403
177.61260099999998,0.7565956140692773,0.32453685246430164,28.211242329271368,80.62207897192735,0.34277347878948977,1428.7190380964112
177.6421835,0.7565567450633531,0.32448447129577473,28.204501737325195,79.4057288069683,0.33557323461955696,1407.1681178913832
177.67153,0.7565170226555566,0.3244325081622861,28.19781597239428,83.38971444295215,0.34830371352874784,1477.7737181982486
177.700789,0.7564787561507175,0.3243807000988912,28.191151183173332,81.37830318447857,0.3374704697030637,1442.1332141579892
177.7299635,0.7564392411770212,0.3243290417755096,28.18450667472378,85.39779113289352,0.35032258001542904,1513.3684657498839
177.7591385,0.7564011751674542,0.3242773826681389,28.17786308138957,82.61330739237377,0.3374449647379212,1464.0278747276222
177.78844700000002,0.7563616338350602,0.3242254872623253,28.17119012172329,85.52148584223885,0.34708154632842103,1515.569558444046
177.8173965,0.7563231883439167,0.32417422759084713,28.164599913874603,85.33949233655589,0.34571845950104046,1512.348829206734
177.8463845,0.7562845776630432,0.3241228997994648,28.15800194979827,85.39455858615032,0.3461745151850336,1513.3291676513747
177.87528450000002,0.7562460053813908,0.3240717278597927,28.151425017277095,85.48373003753049,0.3478135569629781,1514.9138991742498
177.90448600000002,0.7562076047420432,0.32402002208537367,28.144780484418373,82.55787591907726,0.3391969426878867,1463.0672587891231
177.93406149999998,0.7561682045842595,0.32396765408727946,28.138051887464975,81.42867827785582,0.3391523091703068,1443.06029571565
177.96351099999998,0.7561287823526853,0.3239155091757027,28.13135298989932,80.46619639832562,0.3421453967241433,1426.007700734181
177.992617,0.7560896927096551,0.3238639724517323,28.12473323959529,79.25140115519629,0.3472374012424818,1404.4834876895495
178.022089,0.7560511613889759,0.32381178761765383,28.118031269515548,72.80338424919987,0.33405687064739514,1290.2164150264432
178.05179800000002,0.7560110700900902,0.3237591830694787,28.11127644346627,70.47606863774567,0.3419118533130496,1248.9756809132934
178.0809615,0.7559718811700983,0.32370754433305204,28.104646657095884,66.89254520429283,0.3468220906267866,1185.472069572167
178.1100335,0.7559332203227246,0.3236560675133988,28.098038666481422,61.83875299929907,0.34448201853674953,1095.9118367000387
178.139441,0.7558942506472398,0.3236039965178304,28.091355425806512,56.66735565653646,0.3395367085249612,1004.2668917695454
178.16907700000002,0.7558546685659402,0.3235515207875454,28.08462127892665,52.79707619119935,0.3397049721321544,935.6800826500585
178.19842749999998,0.7558150628445226,0.3234995504329656,28.077953015982366,50.31329360056693,0.34673222394230196,891.6646749043687
178.227938,0.7557762182004232,0.32344729659986793,28.071249413061395,45.405620379779506,0.3368813442412371,804.6920965412662
178.2575435,0.7557361588227361,0.3233948743634493,28.06452524625338,43.54052511559383,0.3452246578002279,771.6406480955576
178.2870465,0.7556970346177206,0.32334263341839714,28.057825370048803,39.91242242078147,0.3399598764781981,707.344254252819
178.316607,0.7556572232722967,0.32329029043610596,28.051113445090053,37.86931668206524,0.34483568196681613,671.1375251531507
178.3461555,0.7556179195005636,0.32323796846304265,28.044405251757624,34.93599460836101,0.34132309334865385,619.1537039920461
178.3760855,0.7555781141371007,0.3231849707007902,28.037611472931488,32.21082648190307,0.3375992340552452,570.8586141004185
178.40576800000002,0.7555377624732185,0.32313241091538614,28.030874889056456,31.248706293160087,0.3480384645905536,553.8090503249705
178.43524050000002,0.7554985938499366,0.3230802226935588,28.02418696352204,28.767702386243926,0.34355532436283964,509.84068673494005
178.464835,0.7554587784427662,0.323027818132812,28.017472351708353,27.244750321539946,0.34670911431215706,482.85135864566377
178.4943455,0.7554192568774855,0.32297556199069344,28.010777791884255,25.524621078056796,0.3469190649653904,452.3673350920061
178.523829,0.7553796404656058,0.32292335331847416,28.00409034540417,24.098315723834382,0.34921973036375736,427.090519561851
178.553797,0.755340165251181,0.3228702863388252,27.997294014519273,21.682209000146415,0.3387630532311392,384.27142981508996
178.5836015,0.755299222094744,0.32281750849907437,27.990535770504938,21.60828645209172,0.3549548577863393,382.9624738432632
178.61260850000002,0.7552601593824482,0.3227661424888084,27.98395932384,20.502264600540997,0.3579277970533615,363.3615853997537
178.642092,0.7552213310248397,0.32271393228026185,27.977275815796727,18.402701711839395,0.3468261308315834,326.1520192099844
178.6719155,0.7551809624714944,0.3226611195573582,27.97051622722816,17.681463132906096,0.3529279529111007,313.37042532481223
178.7014185,0.7551411944523816,0.3226088739441162,27.96383026107647,16.811739061214265,0.3566226277535533,297.957111883383
178.731482,0.7551016605384202,0.32255563529192877,27.95701827477836,14.9986403554618,0.3443227353810152,265.82409250859916
178.76137,0.7550603584510482,0.3225027069369455,27.95024705284332,15.253042155115661,0.3635392330559422,270.33373462085166
178.79068949999998,0.755021269899285,0.32245078484009604,27.94360559128705,14.094553130688091,0.35908811416133074,249.8022724048518
178.82007049999999,0.7549814700468803,0.3223987533262333,27.93695115501816,13.589488353997137,0.3652563291834347,240.85157034990945
178.8497605,0.7549421899656201,0.32234617406513777,27.930227704102446,12.288035080001825,0.35691729615377665,217.78608877357314
178.879412,0.7549015313679744,0.3222936624347396,27.923513942559378,12.267754495345764,0.3693962450988114,217.4273055617526
178.90874300000002,0.7548623285532229,0.3222417178390643,27.916873701573863,11.404255485492259,0.3669753499054276,202.12370314422665
178.93859700000002,0.7548225063672015,0.32218884643408957,27.910116028802605,10.538659396311905,0.36385033724771715,186.7828512762779
178.9682335,0.7547818673661718,0.3221363596185068,27.903408554383745,10.558698981606359,0.3746145084325173,187.13859089232207
178.99760300000003,0.7547426047047541,0.32208434505571937,27.896762455468217,9.819299196369803,0.37243654701472517,174.03425637405346
179.0273045,0.7547026585873271,0.32203174187372574,27.890042183603267,9.289660165922905,0.37326079374028404,164.6475954720326
179.0571085,0.7546624736168562,0.3219789565000313,27.883299684189463,8.854825110718838,0.3746331266426123,156.94116614143428
179.0867255,0.7546222236751289,0.32192650164906444,27.87660044375927,8.651152356933167,0.3808856660033931,153.33177428808824
179.1159615,0.7545825163314926,0.3218747209180167,27.869988314673762,8.4369300121108,0.38624626846188614,149.5353747976323
179.1452165,0.7545432683810276,0.3218229058513217,27.863372811819183,7.915696468148367,0.3844334784421334,140.29749829779738
179.17491,0.7545034830824953,0.3217703134176255,27.856659092096763,7.392196452061615,0.3831891966803097,131.0194014923043
179.2046685,0.7544630233654123,0.3217176051161086,27.84993162577133,7.2371916156188485,0.3886817019325192,128.272483207496
179.234263,0.7544230351499935,0.3216651865386794,27.843242175489536,6.937767245633489,0.38945853279607884,122.96583662408763
179.2638,0.7543829913975343,0.321612869041297,27.83656665543266,6.728977266168197,0.39376456734468435,119.26557716647778
179.29344400000002,0.7543431315376133,0.32156036123408843,27.82986788772517,6.344638908655325,0.39361815852680065,112.4538368913356
179.322882,0.754302770868766,0.32150821751477954,27.82321659517832,6.409530005028038,0.40181825063109017,113.60432308658498
179.35225100000002,0.7542634415854584,0.32145619520901686,27.816581808459734,5.957226791854907,0.3990095994873237,105.58788964289592
179.38217,0.7542232403842455,0.3214031978241869,27.80982370879236,5.597982525190618,0.3960771686715677,99.22082667902887
179.411814,0.7541823939879115,0.3213506867054896,27.803128657648916,5.778706568710918,0.4088111215890875,102.42436020863377
179.441286,0.7541429104000446,0.32129847940226997,27.796473369323124,5.373121131809501,0.4040171721171434,95.23587052988135
179.4708845,0.7541025023514637,0.32124604713081883,27.789790432901,5.364711673673432,0.40792082566641863,95.0871045285898
179.50075750000002,0.7540626486184241,0.3211931276814632,27.783046448372577,4.899873355902564,0.40433374312878717,86.84831910787672
179.530592,0.7540214679152503,0.3211402754997664,27.77631208577513,5.1124014562320745,0.41317211956592237,90.6155718002824
179.5600455,0.7539816910055235,0.32108809733154964,27.76966463372578,4.898554032779463,0.4125420778954961,86.82546033970964
179.58981949999998,0.7539415162861048,0.32103535042477965,27.762945763366197,4.668562189657503,0.41194207961635704,82.7491727366443
179.6196235,0.7539008414754111,0.3209825493883741,27.756221043472607,4.6497881646856465,0.41575371173107084,82.41665840148943
179.6492025,0.7538605573290103,0.32093014597546715,27.74954799873365,4.591681666188131,0.4179316701537458,81.38697703828907
179.67863699999998,0.7538204658143576,0.32087799757077,27.74290844903731,4.538958348779503,0.42128447126013235,80.45270476215401
179.708121,0.7537805467313539,0.32082576045743233,27.736258627131505,4.376554864072497,0.4203980237957628,77.57434847605285
