T(K),Fc,X,m(mol/kg),cp(J/gK),cp_err(%),cpm(J/molK)
183.0002655,0.365098453569337,0.3149828131161564,26.998848410659647,3.1979767429729136,0.35599221559994826,56.70316752666472
183.0303255,0.3649909777602149,0.314929334146008,26.992157179297372,3.1708197839886516,0.3542590733261716,56.221822098362544
183.060141,0.3648828066080734,0.3148762872589945,26.985521041687786,3.2721400169657606,0.3612831315663597,58.01850903760717
183.08989200000002,0.3647770013509186,0.3148233522332041,26.978899922159762,3.1898621239741396,0.3557856152327909,56.5598073653518
183.119578,0.3646692086840432,0.3147705299612567,26.972293925613325,3.290533866635604,0.3624541921254782,58.345007063201464
183.14946600000002,0.3645637876383066,0.31471734531615786,26.96564363928133,3.123888778960619,0.35182511116701676,55.39036487000086
183.179621,0.3644544587299373,0.3146636825467883,26.958934613720807,3.1996038430905136,0.3574395035278363,56.73306090959722
183.2093335,0.3643470346836182,0.31461080426426663,26.952324693903318,3.247916344875355,0.3606095138499386,57.589878732620434
183.2392105,0.3642408019811234,0.31455763023777156,26.94567883374994,3.143386539374718,0.3540590384071708,55.736596975664604
183.26912549999997,0.3641321098129195,0.3145043855609593,26.939025176590693,3.2308418896466073,0.35990672788982103,57.28747723809938
183.298876,0.3640255196288813,0.3144514306597026,26.932408756006673,3.1886855406095767,0.3574713578213565,56.5401570266303
183.3286765,0.3639179261776773,0.31439838373252355,26.925781862046946,3.210548984976748,0.35890533746549386,56.92800257144086
183.3582675,0.3638108917507391,0.3143457067156463,26.91920219388099,3.2451150905812534,0.3619543649503794,57.5410877923987
183.3882585,0.3637047233345957,0.3142923145500479,26.912534231046187,3.08531085568646,0.351170737435422,54.70767109471574
183.4181845,0.3635947205783162,0.3142390349948014,26.90588136675821,3.2622372584138466,0.3627582766962309,57.845046824806865
183.4477445,0.3634889364658685,0.3141864039943218,26.89931050053119,3.1953993213531278,0.35831443695061194,56.660067714140084
183.47754500000002,0.3633814874025947,0.3141333416908905,26.892686807946795,3.1921284236513636,0.3579657247768643,56.602242001144816
183.5072235,0.3632738838439392,0.31408049351205725,26.886090862848903,3.2370831858051288,0.36116435291552856,57.39954649004267
183.537356,0.3631672305853253,0.3140268337123636,26.879394659756755,3.0670855264578494,0.34908899220884154,54.38533782742584
183.5675075,0.3630562617145183,0.3139731368458575,26.872694879715187,3.2408003000920362,0.36034186727284584,57.465813393043405
183.5966975,0.3629493853564379,0.3139211492213166,26.866209361685822,3.3670891078365552,0.36862372194808246,59.70534315317582
183.626002,0.3628452795240573,0.3138689545930141,26.859699008374122,3.2101086463009407,0.358034930733214,56.92193125989736
183.65589,0.3627374915055465,0.31381571749243486,26.853059645442233,3.185947435198603,0.35656978140993567,56.493675829593414
183.6857665,0.3626290815622903,0.3137624976375263,26.846423462910835,3.212985814810203,0.35796996683921006,56.973298968376845
183.71565850000002,0.3625212904969791,0.3137092469157099,26.839784461598345,3.1800569694295797,0.3563371355277575,56.38957121125028
183.7454325,0.3624126814521806,0.313656203149638,26.83317228655751,3.2481430312686217,0.36075673504910016,57.59706645982316
183.7749315,0.3623056588427857,0.3136036460906722,26.826621789968186,3.264227495027948,0.361723382200001,57.88245639268876
183.80506350000002,0.3621989561478279,0.31354995792051044,26.819931351983804,3.0629168969966534,0.3481627454504618,54.31291246521502
183.835215,0.3620872587758144,0.3134962316278382,26.813237210870287,3.2592376111266557,0.361204566703566,57.79433169722168
183.86462649999999,0.3619803280964035,0.31344382065332344,26.806707964142195,3.2830699369771232,0.36303997898971646,58.21711350967993
183.8943965,0.3618739100794083,0.31339076752975004,26.800099735051234,3.152886494709934,0.3541012868524282,55.90880352888462
183.924376,0.3617642919896589,0.3133373376790418,26.793445613347068,3.2244423507042574,0.35860149077770886,57.17784931476422
183.9539665,0.361656266944135,0.313284597770081,26.786878432053413,3.276457636406314,0.3616881453732012,58.10039379684608
183.983519,0.3615493863942015,0.3132319222630511,26.780320276895836,3.236370514145244,0.3592528955077699,57.38971564711092
184.01322399999998,0.3614415511194128,0.3131789715684637,26.773728874450136,3.225589137002416,0.3587501774553532,57.198706814036285
184.043093,0.3613334761981841,0.3131257251171864,26.767101680437428,3.1821960126100564,0.356225131574166,56.429398624473976
184.07278250000002,0.361224361157266,0.31307279524188286,26.760514906562605,3.2781197110244293,0.36234503537042084,58.13057629391061
184.1022205,0.3611175049791827,0.3130203103613329,26.753984511571094,3.2556827387214735,0.3612799207410881,57.73287825717377
184.131895,0.3610101329882538,0.31296740040951343,26.74740223729505,3.2000520222837636,0.35763056214035666,56.74655422451052
184.1617335,0.3609014689073498,0.3129141945695428,26.74078417526117,3.199573382158279,0.3579691477508867,56.73824044155577
184.1912595,0.3607928153705539,0.312861542511811,26.734236004930526,3.293004861441166,0.3640354157079181,58.39524403232192
184.22085800000002,0.360686340867015,0.3128087577138655,26.72767233334745,3.1763171907531733,0.3566011897411751,56.32617910629112
184.250628,0.3605770712771942,0.31275566356451395,26.72107121175434,3.238144100659673,0.3606163035115199,57.422742009098776
184.2806,0.3604692597780911,0.3127022055855371,26.714425886118946,3.1154603118023623,0.35272665956794247,55.247332799412945
184.31062150000002,0.3603584272397393,0.3126486557144319,26.707770173766754,3.2206211238719678,0.3595617218260944,57.11235524163601
184.339884,0.3602501660842564,0.31259645619798254,26.701283295053972,3.343700543891814,0.3681252265540768,59.29514224725704
184.36938300000003,0.3601447861942126,0.31254383130482355,26.694744551602422,3.1438304688545617,0.3550397869384193,55.75093751935934
184.3992445,0.3600347102999744,0.31249055613378734,26.688126029519808,3.2229361293853436,0.36055355046686466,57.15392866425711
184.428717,0.3599265954977618,0.3124379714069255,26.68159428903833,3.254234113687345,0.3629387234114452,57.70912623316301
184.45838750000001,0.359819274142023,0.31238502982004673,26.675019230884537,3.156958115662349,0.35646658618723087,55.98424815060621
184.4883785,0.3597096234021871,0.3123315126838758,26.66837372158603,3.154743990143133,0.3564435529465126,55.94515623670013
184.5181905,0.3595998689541798,0.3122783112842444,26.661768444129624,3.2135592306897665,0.3602006366274818,56.98834038829949
184.5477395,0.3594914384002594,0.3122255755903491,26.655221995371047,3.241900362451641,0.36158944945694343,57.49110860488848
184.577124,0.3593835203184288,0.31217312987391405,26.64871253910118,3.2748652356147536,0.3633100093701297,58.07587551150362
184.60679449999998,0.3592762069241489,0.3121201700406984,26.642140278934356,3.164174561814238,0.3558966990129448,56.11307808833863
184.6366865,0.3591661048715123,0.31206681110875933,26.63551951441617,3.21178825613846,0.35917395311483813,56.95762853445142
184.66668149999998,0.3590570792280242,0.31201326453040584,26.62887649918357,3.1336023406444293,0.3536632335611543,55.57125642332739
184.69658900000002,0.3589461306078003,0.31195987036416783,26.622253421846175,3.233949270518486,0.3605815512917326,57.35098379540562
184.7262485,0.3588376568028465,0.31190691520020875,26.615685814109586,3.202062755587461,0.35883571472737796,56.78568034543962
184.7557665,0.3587284373945514,0.31185420894778626,26.609150080574828,3.272497027738782,0.36365769564425393,58.03494455550646
184.7853605,0.3586209139267376,0.3118013632439049,26.602598059706015,3.1742178908088006,0.35745310874248937,56.29221925845594
184.81505049999998,0.35851104666015,0.3117483423265158,26.596025326339575,3.238545780341863,0.36188582888261234,57.43319845891265
184.844626,0.3584027291516105,0.3116955220982493,26.589478478251635,3.209094571522501,0.35944971184127755,56.91107639595511
184.874163,0.3582936134452785,0.31164276684121844,26.582940685954036,3.255872892227244,0.3621286649319297,57.740833122824725
184.904158,0.3581854901872652,0.3115891896729806,26.57630206236273,3.078173314894069,0.350911772181289,54.589612753729654
184.93397,0.3580729135369068,0.31153593548053476,26.569704481886752,3.314948310333445,0.36656809480756114,58.78885991745842
184.963755,0.3579660475928068,0.3114827256211325,26.563113413085183,3.083931352647868,0.3509497536562688,54.69206368844515
184.9938835,0.3578535763340115,0.31142889813107616,26.556446875262434,3.207494970780351,0.3588313433652885,56.88358241957808
185.0235545,0.3577440899880921,0.3113758840813806,26.5498821007736,3.2252160928897005,0.36013264198445266,57.198033821074524
185.053027,0.3576348973842908,0.3113232208233316,26.543361765807838,3.275143921110385,0.36318296483976314,58.083661926720396
185.0826405,0.357526784450879,0.3112703017136003,26.5368107577986,3.191514882227056,0.3573762054282414,56.600699426707486
185.1122995,0.3574164613719102,0.3112172973576033,26.530250205970507,3.275632431299085,0.36210497718655915,58.09268003365186
185.1420845,0.3573079229285492,0.3111640638419009,26.523662306365477,3.167753379740779,0.35445858734075086,56.17963913477071
185.17188099999998,0.3571965776162317,0.31111080576437977,26.51707238597616,3.282621299938963,0.3618249322010175,58.21698340061816
185.2012655,0.3570878635549138,0.31105828015141485,26.510574095465607,3.3002609303231853,0.3628604007823786,58.529997731840155
185.23089800000002,0.3569794704610939,0.3110053072522409,26.504021471711848,3.207825084419634,0.3566526500719311,56.89082527437278
185.260817,0.3568688327981207,0.31095181811801176,26.4974060131745,3.209119353360979,0.3568288290936711,56.91395454822461
185.2904495,0.3567582299487059,0.31089883714151395,26.49085441526445,3.293544640214209,0.36265727611460613,58.41142117161079
185.3198795,0.356649619478123,0.3108462142206993,26.48434809148255,3.27133081230057,0.36126018304704255,58.01763208842599
185.34983649999998,0.3565404236106636,0.3107926448758237,26.477725771881314,3.1340777092208296,0.3521837099862251,55.5835955155759
185.37980499999998,0.3564278195344525,0.3107390508010133,26.47110142521587,3.265105747041159,0.3607603387580052,57.907586979823044
185.4093805,0.3563184461510226,0.31068615544620753,26.464564451922435,3.2474150081023505,0.35974313993367163,57.59401216819316
185.4388605,0.3562086602007553,0.31063342682287926,26.458049082256835,3.2926952597431423,0.3627587485530979,58.397250270651554
185.4687295,0.3560999036446259,0.3105799982663151,26.451448242464043,3.131963754821359,0.35253963238316155,55.546784564010025
185.498465,0.3559871399511107,0.31052680433608043,26.44487740591338,3.3408111820192357,0.36576964588752103,59.25096911755289
185.527735,0.3558792823284262,0.31047443905821154,26.438409919780135,3.277186434623943,0.3614175456044854,58.12272752588453
185.557692,0.3557698802842961,0.31042084049890145,26.431791131802257,3.1285638844899957,0.3517085727238268,55.48699512615651
185.58763,0.3556568295112247,0.3103672716643443,26.42517704245423,3.2803357183179607,0.3617200845428266,58.17894103574763
185.616938,0.3555474756272028,0.3103148259551261,26.418702619610947,3.317281335915062,0.36478421540071604,58.83437396615608
185.6468375,0.3554390128230678,0.31026131752948605,26.412098019145457,3.0969985407679963,0.35004883155731786,54.92766925025224
185.676737,0.3553251680567014,0.31020780479920584,26.40549391213898,3.3113583594512117,0.36459249822429307,58.729687823186545
185.706072,0.3552166129367388,0.310155298185893,26.39901496780056,3.259714310318207,0.3614225300690456,57.813912652321555
185.73571650000002,0.3551068736660349,0.3101022333594433,26.392468145892355,3.2084132293551586,0.3584255862959215,56.90421663178619
185.76533,0.3549959226822392,0.3100492197531264,26.38592864880681,3.264581807340796,0.3622140042821638,57.900595862656
185.795153,0.3548863215383053,0.3099958267734637,26.379343369778343,3.143738243421717,0.35402902719237794,55.757486927871454
185.82485450000001,0.3547737150761172,0.30994264698461393,26.3727853978345,3.300148401875619,0.36468973098291674,58.5317640615224
185.85439200000002,0.3546649265246279,0.30988975652871464,26.366264108040852,3.1855475915381475,0.35769399267885366,56.49936471819484
185.8839175,0.354553447854143,0.30983688325459596,26.35974593575456,3.294289798941771,0.36486809167128503,58.42821130234674
185.9133095,0.3544446568300363,0.3097842447570419,26.35325769851785,3.217711047658076,0.3603671560086039,57.070167657545525
185.9430375,0.354334080605039,0.3097310001428302,26.346695757874002,3.1849861054160606,0.35806279740280955,56.48992277326873
185.9727655,0.3542226879832307,0.30967775111820284,26.340134286056227,3.2172224259174746,0.36014577847980056,57.06185141681344
186.002684,0.3541120173619727,0.309624156399865,26.333531239091922,3.1285477127782113,0.3546985306371257,55.489255110886916
186.0326865,0.3539991053381085,0.3095704066898371,26.326910126214127,3.1901547209446197,0.3585311701540219,56.582118462525514
186.062052,0.3538877111922762,0.3095177937739047,26.32043004671428,3.32394387958518,0.36747971836847043,58.95524602201589
186.09155500000003,0.3537794680879773,0.30946493011012055,26.313920078333567,3.149479596176187,0.35608159054117616,55.86102432480368
186.12118,0.3536669503782157,0.30941184339809363,26.30738364534774,3.2852104221366587,0.36481337748804266,58.26860436640866
186.15097250000002,0.3535577015132887,0.30935845202291956,26.30081071347991,3.097124984945765,0.3527690955874901,54.93276908211938
186.1807005,0.3534438326276228,0.3093051717146964,26.294252467916547,3.2986898805569043,0.3661895995649998,58.508044255667826
186.2101045,0.3533349731810494,0.3092524676380093,26.28776614577194,3.185941943051805,0.35909353014745027,56.508433624998865
186.23992800000002,0.3532234359837184,0.30919900709740694,26.281187736309672,3.164612537237289,0.35773459484702436,56.13029096569048
186.269408,0.3531113368705097,0.30914615778679194,26.274685540449454,3.2962738447569984,0.366268129280235,58.4657272079176
186.298716,0.3530022813170146,0.3090936123580719,26.26822171819169,3.2275267376829717,0.3609852596059677,57.24653893952681
186.328444,0.352891377821838,0.30904030936011584,26.261665708799853,3.1795594461892804,0.35770104965899074,56.39591779292626
186.3583515,0.3527790747002372,0.30898667986074985,26.255070562062862,3.1863415447702885,0.357103707660669,56.516386635941025
186.38797599999998,0.3526667265531013,0.30893355321383814,26.24853826342744,3.2752024765105525,0.36318436726856845,58.09269765472585
186.4175245,0.3525564534081977,0.3088805582674626,26.24202315885836,3.208517899064739,0.35916123186971544,56.91007826452441
186.446974,0.3524445800518471,0.3088277362974749,26.235530313891285,3.2999530157839803,0.3651293332252375,58.53205803256184
186.47661399999998,0.3523349569541833,0.3087745680067751,26.228995901508558,3.14384112734676,0.3548734260731227,55.76323482533282
186.5067235,0.352221553552054,0.30872055275313975,26.222358426218378,3.151101129270899,0.35589343301188414,55.892181533015595
186.53634849999997,0.3521082998726507,0.3086674019628727,26.2158281899152,3.2942006516367672,0.36515342464313966,58.430566657807375
186.56563799999998,0.3519984471736839,0.30861484849135745,26.209372328829673,3.256635821592592,0.3626157963762588,57.76443898285376
186.595385,0.3518876243139237,0.30856146943284873,26.202816054226016,3.1518011690424754,0.3554646554843196,55.90511071248835
186.62536849999998,0.351774227620207,0.30850766117626327,26.196208087885942,3.1767342044225133,0.35780162575728347,56.34753538491077
186.65508499999999,0.3516615240949718,0.3084543272921939,26.189659392001076,3.224338642140049,0.36131001846767935,57.19209799769359
186.684538,0.3515500429676766,0.3084014616112517,26.183169182038593,3.2497499553592744,0.362984505982727,57.643009795538944
186.713877,0.3514392308556537,0.308348795868774,26.176704504630862,3.2529333163499006,0.3636694878529444,57.699650272312766
186.74336449999998,0.3513285145286118,0.3082958588339062,26.170207518350296,3.204890040881493,0.3604141496078619,56.84764501806146
186.772814,0.3512164846989652,0.30824298527660987,26.163719315282954,3.2757575451338607,0.36431369046699386,58.104854427630485
186.8023895,0.3511059597094738,0.3081898807152232,26.15720376358321,3.177795809298833,0.35753145176295253,56.3673975283562
186.83223199999998,0.3509928797920042,0.30813629186468294,26.150629806988103,3.2007146398203643,0.3589662996516796,56.77410452109642
186.8617425,0.350880238155709,0.3080832943633724,26.14412939505634,3.28616423488763,0.36428699181028823,58.289982808064124
186.89120350000002,0.3507695721639856,0.3080303809516935,26.137640290499792,3.2153775679686745,0.3596354190341194,57.03454272115777
186.921046,0.3506572073869771,0.3079767774353111,26.13106756589824,3.1619315286291854,0.3564946591122976,56.08668714505668
186.95100250000002,0.3505435545409434,0.3079229641629902,26.12447014570567,3.176546957230803,0.3576258931291534,56.346111882366564
186.980387,0.350430226537796,0.30787017355017926,26.117999098759142,3.3424677172224464,0.3684638026468511,59.28942188395336
187.00964950000002,0.3503208108805528,0.30781759730786107,26.111555310289887,3.2208960688079085,0.3598654075387486,57.13313048483471
187.039557,0.3502083099372904,0.3077638572138792,26.104969890751928,3.1523931156389318,0.35498794917511445,55.91817957319201
187.069407,0.3500939037362697,0.307710215411613,26.0983975356831,3.2498559101901656,0.36107985258394015,57.64718461110415
187.098925,0.3499817396889105,0.3076571652726425,26.091898674628894,3.2622329899850784,0.36182467719841394,57.866910811524285
187.1287865,0.3498697543765711,0.30760349276099896,26.085324583807406,3.148392685691755,0.3542302912222297,55.847734535964044
187.15878149999998,0.3497548812971909,0.3075495751901116,26.078721502962843,3.221435780030585,0.3586425566579492,57.14358626780233
187.18827299999998,0.3496417815035505,0.30749655767923223,26.072229651675304,3.3053177011750394,0.36415731913950705,58.63170863145498
187.217524,0.3495306361181134,0.3074439676009907,26.065791120320817,3.2988777756159946,0.3638968191714167,58.51765063810545
187.246981,0.3494192673307586,0.30739100219124976,26.05930762589692,3.242285343563833,0.36002549943406315,57.51395255350404
187.27644199999997,0.3493064566558735,0.30733802458961335,26.05282363094553,3.2985253899779767,0.36381615712816695,58.51175686513226
187.30611299999998,0.349194959575514,0.30728466429117773,26.046293799794494,3.1771066187528687,0.3559197138973385,56.35811140639245
187.336024,0.3490804494164468,0.3072308672126097,26.03971153708329,3.2213548580386138,0.35902734385608814,57.14319988226809
187.365668,0.3489670237981208,0.30717754522126134,26.033188411685845,3.255744764101982,0.3611588338959,57.75341539415426
187.395377,0.3488544477262472,0.30712410117078814,26.026651361688874,3.195056480297994,0.3576786736560576,56.677044898898714
187.42495200000002,0.3487404255132389,0.3070708930484036,26.02014417112522,3.289617963033988,0.3640898925193916,58.35464805618287
187.454321,0.3486287722463222,0.30701805046172514,26.01368267344862,3.2530660891478838,0.361893521088387,57.70642873526563
187.483923,0.3485162222705047,0.3069647835116143,26.007170282619626,3.2152300993143066,0.35953881394555504,57.03542774495728
187.513319,0.3484026903500687,0.3069118821290675,26.000703576631203,3.3178263695317534,0.3660007993453589,58.85557703691522
187.543097,0.3482916150474408,0.3068582880809908,25.99415320523622,3.09849381891354,0.35188792378865746,54.96496329768697
187.57293600000003,0.3481750614814506,0.3068045789666659,25.987589786356505,3.2939565922508014,0.3649590336685859,58.43250750211914
187.60249950000002,0.3480634200077508,0.3067513605152223,25.981087331091068,3.1759606489019654,0.3573553463945919,56.33951393305406
187.6321775,0.347948870574873,0.306697930699185,25.97456005462939,3.2540092033881693,0.3626387602940991,57.72422310378711
