T(K),X,m,cp(J/gK),cpm(J/molK)
175.1078705,0.3289743709898976,28.786098586488063,2.3088515831989254,40.9051246085407
175.1364045,0.3289237706153442,28.77950073373293,2.486187152593315,44.04704607570161
175.1648315,0.3288733615628963,28.772928817001514,2.5926340489007456,45.93306795063675
175.19314050000003,0.3288231633031805,28.766385362679348,2.77512260273265,49.166315693704576
175.2215945,0.3287727094630627,28.759809579087765,2.529970435149283,44.823132118718306
175.250201,0.3287219867508681,28.753199749079904,2.7268857261539963,48.311994100569684
175.27853249999998,0.3286717531480303,28.746654640812014,3.0502927211021724,54.04192389702752
175.306616,0.3286219607239322,28.740167981800397,3.2044883043773535,56.773964409554594
175.334719,0.3285721351634015,28.73367796902166,3.2132635326010264,56.92959884444786
175.36334449999998,0.3285213846914397,28.727068472332267,2.7310534756121934,48.38639354862278
175.391638,0.32847122425864117,28.720536801162048,3.9292315786210725,69.61485639425197
175.419951,0.3284210306641747,28.71400178849785,3.027351331604332,53.63624771526835
175.44848100000002,0.3283704537788175,28.707417860828766,3.971708964605998,70.36784433837943
175.4767095,0.3283204127566114,28.700904665835864,3.7564507770996354,66.55424875474897
175.504965,0.32827032522492394,28.69438638906745,4.354304387481562,77.1468366505208
175.53342650000002,0.3282198738769257,28.687821748690535,3.9620869356112527,70.19797785920744
175.561995,0.32816923420728367,28.68123359570851,4.715185633227482,83.54119148201448
175.5901665,0.3281192995544292,28.67473813691892,5.069684732539523,89.82227967759266
175.6185555,0.32806898067351853,28.668193674651505,4.993272247369518,88.4686960882386
175.647303,0.32801802766789234,28.66156773698782,5.2418246051450375,92.87271506069136
175.67552799999999,0.32796800202295573,28.65506337095301,6.601677048335377,116.9664165601179
175.70356600000002,0.32791830903903274,28.648603216367185,6.3989339643929855,113.37460392534291
175.7322485,0.3278674750255437,28.641995714800643,6.636978488433381,117.59255800073078
175.7606455,0.32781714822892827,28.635455126726438,8.02947990612983,142.2650116585316
175.788607,0.32776759442538844,28.629015955515595,8.62879937877471,152.88409296021334
175.8169765,0.32771731873318055,28.62248395000968,8.785411538267427,155.65938083775598
175.84548,0.3276668067453408,28.615922227891467,10.041201539398761,177.90990903407103
175.87345349999998,0.3276172351176526,28.60948362108154,11.617214537394814,205.8342801005693
175.902022,0.32756661023365835,28.602909191936828,10.972100236547641,194.4046862264579
175.9306855,0.3275158181443956,28.596314043346297,13.802580395429066,244.55611166953557
175.9585785,0.3274663924709835,28.589897274699442,15.135979459526324,268.182233160746
175.9867575,0.32741646107872696,28.583415807891836,16.21726238665204,287.34144214396247
176.0147575,0.32736684790831305,28.57697660174514,19.0562366547084,337.6440522667122
176.04296349999998,0.327316870764248,28.57049111641249,19.583893963116406,346.99424102017315
176.071322,0.32726662444487853,28.56397167187075,23.15830682824326,410.32811969367486
176.099444,0.3272167981698499,28.557507689576397,25.119575351571566,445.0799367639328
176.1279855,0.32716622963856107,28.550948392956084,27.435864228030727,486.1224027554441
176.1562905,0.3271160811154762,28.54444454967431,31.984046576417068,566.71101764821
176.18422149999998,0.3270665961644866,28.538027716340707,35.350800961174286,626.3668204079307
176.2124465,0.32701659127968574,28.531544420525048,38.208545433918594,677.0040134672654
176.240912,0.3269661612552075,28.525006979677777,42.19785250314314,747.6913413399299
176.268977,0.32691644167512407,28.518562595526507,48.157737000944266,853.295228989947
176.29670199999998,0.3268673253072486,28.512197331240216,52.3592196165567,927.7429053285831
176.3247395,0.3268176561950761,28.50576137831117,55.59212392695575,985.028934153178
176.353163,0.3267673041482643,28.499237902384547,59.44666553226312,1053.330066943581
176.381541,0.32671703356592546,28.492725954137075,64.98312960679623,1151.4335089502626
176.409617,0.32666729879680007,28.486284370900545,70.37296462392585,1246.939359192276
176.4373535,0.3266181662260221,28.479921717933617,76.35659800696187,1352.9672604257476
176.465468,0.32656836485681673,28.473473403235865,77.00395330165473,1364.441707245325
176.4933535,0.3265189699058015,28.467078653852788,87.2209910002238,1545.482949275929
176.521445,0.3264692108197474,28.460637711309907,84.10776809929662,1490.3235218602754
176.549662,0.3264192301879556,28.454169049305506,94.88765456987194,1681.3394804774791
176.5775665,0.32636980381475866,28.447773065307484,94.16864055782362,1668.603836661692
176.605849,0.32631970862589527,28.441291491355507,99.41103034373403,1761.500482963054
176.633784,0.3262702296441477,28.434890591622356,103.87560201235904,1840.6151164255175
176.66184850000002,0.32622052197478957,28.428461054107046,104.41189071655086,1850.1231428653414
176.6897795,0.32617105142637415,28.42206312929632,110.30484539054304,1954.5487396746519
176.7175165,0.3261219251279637,28.415710655217346,110.13103684897838,1951.4744642962826
176.74563849999998,0.32607211757693877,28.409271034509384,109.62491004982338,1942.5116949293354
176.773703,0.32602241249151753,28.402845610436824,111.93831275610972,1983.5099958552266
176.801882,0.32597250522859705,28.396395004140192,108.14639975260498,1916.3240625826952
176.8300915,0.32592254454807545,28.389938450232005,109.28661962493632,1936.5340199970933
176.8580915,0.3258729554829622,28.38353086754925,105.57804096607511,1870.8242000929315
176.88604199999997,0.3258234546439337,28.377135624983985,103.10815795782347,1827.063525527439
176.91392,0.32577408274566916,28.370757976268735,97.76536957507889,1732.3949228329436
176.9420535,0.3257242588907093,28.364322892571888,91.48680338168163,1621.1438643862348
176.9705835,0.3256737333738232,28.357798155668593,85.29931012774041,1511.5060426542786
176.99898000000002,0.3256234447958395,28.351304987277,84.6499428476134,1500.003586916963
177.0268845,0.32557402800749075,28.344925326046187,84.26987246824586,1493.2729652919268
177.05490350000002,0.3255244089174686,28.33852048844361,82.90208113964968,1469.0397304459052
177.0829875,0.3254746751750522,28.332101797064695,85.85682478065162,1521.40268020008
177.1108155,0.32542539521706165,28.32574260513763,88.86581611612652,1574.7271734357187
177.138918,0.3253756295786683,28.319321682797277,89.2763594524086,1582.0066561928625
177.167315,0.3253253428401098,28.3128344886172,92.95937840906531,1647.275748384047
177.19529599999998,0.3252757931701451,28.306443325105533,99.46336683563285,1762.5339473147326
177.22324600000002,0.3252262987736228,28.300060228094008,100.40089074294835,1779.1523546944345
177.2514635,0.32517633105057125,28.29361703782824,104.66849386971924,1854.7816906915964
177.279673,0.32512637784782294,28.287176673605966,107.8492506335134,1911.1519065551913
177.3078635,0.32507645862824236,28.28074164313438,112.06582141121834,1985.877727279022
177.3357985,0.3250269921616803,28.274365915470888,117.20680135116163,2076.9850901727227
177.3636455,0.3249776818234038,28.268011241188677,119.49698829622163,2117.5747980501833
177.39144349999998,0.324928458536856,28.261668711245296,123.68809155016599,2191.850460985873
177.41951999999998,0.3248787423702636,28.25526361142108,121.83838907956765,2159.0784648419885
177.4476685,0.3248288989713471,28.248843066733578,127.00623957773188,2250.663579410526
177.4756645,0.32477932585288305,28.242458278251576,125.88391440835363,2230.781355229571
177.5038935,0.3247293403875978,28.23602133057711,125.24598550161078,2219.4830519969187
177.5321985,0.3246792205659498,28.229568037712724,123.00227036603086,2179.7284942619044
177.56012950000002,0.3246297631869932,28.223200978083554,123.19512514651665,2183.152307809144
177.5882135,0.32458003507526045,28.216800004894598,111.72116000746036,1979.8267777636715
177.61645,0.32453003710395656,28.210365245706175,108.11739607801898,1915.9694812886535
177.6444,0.3244805465880058,28.203996734301057,99.7272656878414,1767.2913859719183
177.67227,0.3244311978641287,28.197647397982667,94.52844048427329,1675.166493337056
177.70039200000002,0.3243814030544531,28.191241607249406,84.79135601607561,1502.6170495447413
177.72903300000002,0.3243306893794672,28.184718580713046,78.678472821024,1394.2926018294356
177.7574525,0.32428036800432286,28.17824698138195,75.23386763124242,1333.253247606501
177.78534150000002,0.3242309860452435,28.171897133004737,71.81765465670127,1272.716622905829
177.813578,0.3241809888462008,28.165469118513368,63.72694167894822,1129.340302199353
177.8420205,0.3241306269419646,28.158995176241294,61.68233787420882,1093.109923989452
177.8705695,0.3240800764981443,28.1524979676612,55.26421479663447,979.3733472468756
177.8987985,0.3240300926835925,28.14607454296499,55.78667647328205,988.6350820382494
177.92661550000003,0.3239808383830133,28.139745797360046,50.416260485533606,893.4646858819843
177.954993,0.3239305916197086,28.13329047920651,46.5992644163228,825.8232039486165
177.9836755,0.3238798047799969,28.126766751180728,43.14054311799851,764.5306488725503
178.0119115,0.3238298084967033,28.12034552981884,42.94617957023625,761.0883593219578
178.039988,0.3237800945774576,28.11396151507051,38.6510954512213,684.9732254946615
178.068404,0.32372977944748516,28.107501251522123,36.70180522958313,650.4298661489127
178.096644,0.3236797758672756,28.101081942048896,34.781015928383646,616.391390442394
178.12453299999999,0.32363039369087265,28.09474333806179,33.711407651882226,597.4374251400078
178.15265499999998,0.32358059883366735,28.08835270027388,30.088596326233944,533.2350790657516
178.1812995,0.3235298786659269,28.08184427598157,28.282073639701327,501.22105106012975
178.209719,0.32347955675152795,28.075387920091767,27.398692410954805,485.5669858919064
178.2379325,0.3234295994357371,28.068979292604904,25.706911974958757,455.58611085665194
178.2665235,0.32337897350505085,28.062485859246774,23.311408865526364,413.1334449532403
178.2949395,0.32332865725103255,28.0560331086749,23.365744528570733,414.09760305855906
178.32311099999998,0.32327877372667974,28.0496368002447,21.319141086334536,377.8279182539207
178.35138899999998,0.3232287013997008,28.043217230901718,20.566879651634082,364.4970370069023
178.379923,0.32317817552840933,28.036740477291257,18.41367465960934,326.3377585420977
178.4083885,0.32312777069543575,28.0302802026617,18.550521100628,328.76398548701167
178.436541,0.323077919835409,28.023891875789587,17.198118895222375,304.79674026590504
178.4649225,0.3230276631914162,28.01745250056298,16.15950258341005,286.39050661332914
178.493281,0.322977446975202,28.011019260201124,15.498729012599899,274.6805900603863
178.5213875,0.3229276766812605,28.004644088895944,15.127555065725447,268.1031245638807
178.549265,0.3228783115751865,27.998321744644272,14.477851661228042,256.5892702324727
178.577513,0.32282829005321206,27.991916271397297,12.950223635416865,229.51595946499106
178.6060395,0.32277777500196936,27.985448559885345,12.583597992229672,223.01892688707306
178.6344475,0.32272746941538794,27.97900862606035,11.94123757272745,211.63499618403878
178.6631415,0.32267665697614445,27.972504777953922,10.915181112867156,193.45072622607006
178.691454,0.32262651970576245,27.966088305943185,11.626403277302332,206.05637556306388
178.71956849999998,0.32257673265034276,27.959717593633798,10.280170884547406,182.19743307174937
178.7482475,0.32252594550005187,27.953219874734287,9.62131688715965,170.52093706422244
178.776789,0.3224754013895637,27.946754217554098,9.666516250176,171.32251559453272
178.8050445,0.3224253632924643,27.940354240335164,9.360682650715047,165.90261520371212
178.8336165,0.3223747642163735,27.93388347387594,8.405842761995862,148.98009230691062
178.8619405,0.3223246038358057,27.927469762915706,9.078429525542694,160.90108015227938
178.890215,0.32227453061013955,27.92106814285773,7.846235205072517,139.06274875182422
178.91850849999997,0.322224423214078,27.914663101135805,8.43942900969583,149.57665117617256
178.9468215,0.32217428074622434,27.908254524280796,7.243033562671795,128.3726464547261
178.9752605,0.32212391457542183,27.901818310979028,7.634798980905969,135.31653384867639
179.003489,0.3220739206391415,27.895430610712577,7.074037603000386,125.3781546999414
179.0319005,0.3220236020172066,27.889002376776606,6.845674587769004,121.33106798948525
179.060198,0.3219734846990581,27.882600807922973,6.772561786427911,120.03558133936193
179.088366,0.3219235961295594,27.876229397341014,6.632983026453807,117.56205239129602
179.1165565,0.3218736670891466,27.869853756712075,6.377969125127041,113.04254748443014
179.144957,0.32182336546845475,27.863431489119016,5.949022121344811,105.44023538369277
179.173293,0.32177317742912903,27.857024672453715,6.093888703501848,108.00815752705654
179.2015215,0.3217231791230095,27.85064301917231,5.750498144068475,101.92219285651969
179.2300245,0.3216726939310271,27.844200175597408,5.351060486866488,94.84281059218519
179.2586345,0.32162201850414734,27.83773401891927,5.2396545062454365,92.86850950774793
179.286768,0.3215721863650627,27.831376407306823,5.6923423548563825,100.89231420947203
179.3147795,0.3215225696053353,27.82504720176009,5.121597606658255,90.77656978944195
179.3431495,0.3214723170917872,27.81863784178349,4.940472242005947,87.56650892502982
179.37155,0.32142200978921365,27.81222244469756,4.852376353838802,86.0053186804707
179.400149,0.3213713500860865,27.8057630691979,4.428828259807977,78.4984243838336
179.4287365,0.32132070994944223,27.799307152282136,4.682079519783135,82.9873990486902
179.456946,0.32127073860207095,27.792937441101916,4.787905720059432,84.86335731069485
179.4852355,0.32122062472397056,27.786550503804218,4.4139622805638785,78.23561328256912
179.51354049999998,0.321170482555926,27.780160904812877,4.663030809971742,82.65048646359811
179.5417845,0.32112044760474695,27.773785909278015,4.403961666430779,78.0588074234972
179.5702155,0.32107008051186514,27.767369544297555,4.311947407762565,76.42810612831285
179.598929,0.3210192120571325,27.760890276023662,3.977126204964116,70.49369723293843
179.6275085,0.32096858008438284,27.75444209317931,4.448476048485473,78.84850086858685
179.655596,0.3209188188482143,27.74810573898223,4.589741070124681,81.35263334033294
179.684157,0.32086821780608593,27.741663400163198,3.7297221070157023,66.10908883372147
179.712626,0.32081777881136014,27.735242647963688,4.636600797263069,82.18369531729334
179.74082800000002,0.32076781191768106,27.72888293324227,4.0130529668552075,71.13152215157531
179.769404,0.3207171814130965,27.722439709415642,4.043096482423927,71.66425381680354
179.7979075,0.3206666783689343,27.716013662965956,4.063844883756568,72.03223083304165
179.82622400000002,0.3206165056573326,27.70963059431462,4.227950694153413,74.94124650680898
179.8545175,0.3205663726907194,27.703253523691323,3.9932834505336094,70.78192863480888
179.882983,0.32051593392792393,27.69683850447409,3.9093097717757592,69.29367606101835
179.91142150000002,0.3204655419596586,27.690430387777596,3.9556121634095525,70.11460337264381
179.939612,0.32041558839040246,27.684078958255828,4.192747393393389,74.31812192904371
179.9677265,0.32036576843987213,27.677745447834646,4.00510290877559,70.9922523869044
179.9962145,0.3203152855458386,27.67132860582498,3.6355523542849837,64.44198994976385
180.0248435,0.3202645516715143,27.664880822160143,3.787607337017486,67.13743717523941
180.053469,0.3202138228644915,27.658434644779383,3.635597802799147,64.44317246651624
180.081629,0.32016391787335746,27.65209408949538,4.455672258824434,78.97971597534111
180.1097245,0.320114126065521,27.645768842090273,3.7196194948767007,65.9328867533944
180.1381825,0.32006369066454704,27.63936278097656,3.9403931788181676,69.84645954120677
180.1668495,0.3200128836647895,27.632910481997026,3.4456650627005767,61.07720710382284
180.19554349999999,0.3199620275981429,27.626452917231553,3.9197389895997192,69.48075554224005
180.223963,0.3199116568317336,27.620057926563288,3.8320790705036494,67.92710507596594
180.2522795,0.3198614674082506,27.61368690100975,4.067978292140278,72.1088430752123
180.2809165,0.31981070866869943,27.607244562961174,3.350468453416057,59.39046216331828
180.3092215,0.3197605371477366,27.600877699965945,4.492248012707902,79.62989681497042
180.3371755,0.31971098655424224,27.59459055562095,3.797606604961052,67.31682778694194
180.3656215,0.3196605625828248,27.58819353434411,3.7249439721222397,66.02899320866162
180.3939345,0.3196103730830366,27.581827200805584,3.8951890218921545,69.04698580449875
180.422232,0.31956020976233396,27.575465126409103,3.6633770842392237,64.93802368069721
180.450842,0.31950949113602356,27.569033577758585,3.405299266769161,60.363442212736594
180.4793725,0.31945891209454014,27.562620684331897,3.7095843243558457,65.75748981510726
180.5074945,0.3194090559111933,27.55630037458582,3.9203055297656277,69.49301303188548
180.5358185,0.3193588402593689,27.549935430671276,3.425732977630884,60.72618415698546
180.5642,0.3193085212903032,27.543558333073538,3.8252323344403916,67.8080978485729
180.5924475,0.31925843851511404,27.537212105281046,3.5945111583589906,63.71839581915213
180.620764,0.3192082320055783,27.530851135707923,3.7411696151779483,66.31834086577136
180.64912650000002,0.31915794251894103,27.524480593724146,3.5490568158260425,62.91301014268987
180.6776945,0.3191072872126503,27.518064661979643,3.4763107027706504,61.623642686611
180.70654100000002,0.3190561365950059,27.51158696338377,3.162655292943924,56.06372128548419
180.7351055,0.31900548453016914,27.505173360283703,3.8513827257974196,68.27284611348784
180.763079,0.3189558790066555,27.498893195693693,3.9988379362519457,70.88696375406334
180.79143,0.31890560258183187,27.492529027010633,3.311872163696546,58.70936660272414
180.8201125,0.3188547367597125,27.486091206405813,3.499641705829366,62.03812832623077
180.848391,0.3188045858745018,27.479744812886906,3.849498083682237,68.24022758210151
180.8766885,0.31875439976788866,27.47339489762324,3.4497703860415405,61.154413413536496
180.904963,0.3187042529137427,27.467050883277345,3.865288253392251,68.52053690879494
180.933184,0.31865419939812367,27.460719608298685,3.51647260639181,62.33721016053937
180.9616415,0.3186037248399329,27.454336017522298,3.5412768424092818,62.77710243292485
180.989775,0.3185538233811641,27.448025837080444,3.9426840522156428,69.8931497142944
181.017878,0.31850397444542466,27.44172322097134,3.576277436204708,63.397931246183774
181.046332,0.3184535012889946,27.435342621294012,3.477733140900064,61.65118113153543
181.0749915,0.31840266194495565,27.428916685043717,3.3195964052612177,58.84799974324364
181.103697,0.3183517393151721,27.422481182619613,3.3973485614026573,60.22652445595336
181.132094,0.3183013622797711,27.416115577409727,3.7292885957253246,66.11118609999664
181.160029,0.3182518032055982,27.409854247150605,4.079624926947311,72.32200090562192
181.1880975,0.31820200563991635,27.403563702535255,3.5215150434304756,62.428225567667276
181.216494,0.31815162445671313,27.397200369046846,3.5935093114137824,63.70470055018071
181.244799,0.3181014038991946,27.39085825898944,3.651585379202609,64.73444377539106
181.273211,0.3180509917602075,27.384492894491707,3.4314001787327055,60.83122926364031
181.301165,0.3180013905518786,27.378230841821015,4.281493576467305,75.9017451704346
181.32959599999998,0.31795094120671524,27.371862647877514,2.8344589607280124,50.24905525995801
181.3581605,0.31790025317668763,27.365465273573154,4.099145468557873,72.66952592998564
181.386088,0.3178506937560982,27.359211261126497,3.6523255624884503,64.74850120676926
181.4146335,0.3178000358419475,27.352819566455878,3.2343097639091685,57.33807611706125
181.44354850000002,0.3177487203224644,27.346345867053802,3.1590052707926115,56.00323828684475
181.4720635,0.31769811281953453,27.339962441048417,3.784190397005307,67.08679363415962
181.500094,0.31764836337309016,27.333688169747195,3.78959743951282,67.18284327607874
181.528048,0.3175987478921345,27.32743170496726,3.8735660181098366,68.67165366866845
