T(K),X,m,cp(J/gK),cpm(J/molK)
180.7637775,0.3189546403352187,27.49873638896754,3.783772998436125,67.07453585770436
180.792395,0.3189038912666186,27.492312419178774,3.559426960593393,63.09776241642447
180.820902,0.318853336630901,27.48591401303532,3.822199856084661,67.75612026287548
180.8490965,0.3188033346766344,27.47958649075924,3.7118683250151223,65.8004633371399
180.8774855,0.3187529862523413,27.473216062788072,3.695480719029229,65.51014959743908
180.905894,0.3187026016921384,27.466842005227136,3.6665233274023534,64.99700783590652
180.934237,0.3186523317392337,27.46048338591211,3.70206948043019,65.62732997113645
180.962542,0.3186021276131524,27.454134029365537,3.670983942002064,65.07645869800234
180.991057,0.3185515494115146,27.447738309210283,3.5665432231625886,63.225196041766765
181.0197965,0.3185005713636506,27.44129298827468,3.5333817922530883,62.63751732569904
181.048052,0.3184504502127434,27.43495694762783,3.8302669055535072,67.90070161726078
181.0762545,0.3184004214593459,27.42863351662797,3.5466356587819954,62.87283627605097
181.1048915,0.3183496202739703,27.42221340317269,3.56251909389264,63.154594137569
181.1335015,0.3182988652936511,27.415800084548835,3.5512571894224805,62.95513278273111
181.161902,0.3182484802852514,27.409434459489223,3.66373377532007,64.94925707893839
181.1904055,0.3181979108411037,27.403046478887607,3.4604557701743737,61.34580193760993
181.2185465,0.3181479828364797,27.39674045511595,3.846661114654329,68.19251729340952
181.246527,0.3180983379143488,27.390471100925264,3.539022605100026,62.73896856968033
181.2749885,0.318047837838343,27.3840946910878,3.553236381981609,62.991130446579945
181.3033815,0.3179974575505576,27.377734347299725,3.565283748313981,63.20488750870294
181.3319155,0.3179468252949413,27.37134314009335,3.473741549922615,61.58221901562025
181.3603655,0.3178963403038552,27.364971466488225,3.5960977727124868,63.75152608809906
181.389052,0.3178454338158336,27.35854755102007,3.319099492110851,58.84108055175962
181.4178035,0.3177944101278401,27.35210980805245,3.5146208379215502,62.30747120135886
181.4460245,0.3177443260710784,27.34579155638903,3.5761243294950527,63.397992888399024
181.4741805,0.3176943555619405,27.33948855351328,3.5401249470725946,62.75997195668519
181.502459,0.3176441658109727,27.333158825940632,3.496341290528643,61.98394672243993
181.53052,0.3175943602584435,27.32687847233205,3.668707496875843,65.03988138348687
181.5589315,0.3175439307323761,27.32052037122312,3.319767547495071,58.8539465948816
181.5874195,0.3174933635177242,27.31414585391877,3.626577940547861,64.29337098217951
181.6154805,0.3174435523659782,27.307867569552197,3.561626908482085,63.14207533755752
181.643633,0.3173935769062797,27.301569496341475,3.586157110568301,63.57714058652404
181.6722165,0.3173428344015995,27.295175701045537,3.33160197340499,59.06443582385653
181.700678,0.3172923065124862,27.288809892745974,3.6558558838068858,64.81317269972344
181.729052,0.3172419319983169,27.28246434547178,3.3805906840651314,59.93328264176867
181.7576545,0.3171911498113186,27.276068392393064,3.541520059333311,62.78652572116315
181.785761,0.3171412462759073,27.26978403113436,3.6605475609669504,64.89691454166815
181.813761,0.317091529878048,27.26352414944103,3.5939019968056582,63.71555489529802
181.842192,0.317041046192382,27.25716858974088,3.432393938930952,60.85238856250516
181.8710425,0.3169898155335898,27.250719951579164,3.3705226757103928,59.75565881316465
181.8994545,0.3169393614645696,27.244370011769423,3.667690944991391,65.02431436893545
181.927588,0.3168893999209534,27.2380829834776,3.531697837527372,62.61347947701405
181.956076,0.3168388067523271,27.231717410256444,3.481376773290417,61.72151718142568
181.9844305,0.3167884485824244,27.2253823405077,3.637973245349565,64.49801170303972
182.012659,0.3167383121057925,27.21907608749005,3.5865373548023705,63.586283106131965
182.0409565,0.3166880509764536,27.212755084306988,3.613989427061522,64.07317080251026
182.0689415,0.3166383428161191,27.20650453883432,3.7585652703976185,66.63657692669607
182.0972125,0.3165881245325482,27.20019077130388,3.4389821697761938,60.97078184714898
182.1258605,0.3165372343916874,27.19379348005463,3.5415283198976257,62.7890385159058
182.154604,0.3164861723797997,27.187375540699943,3.381309974432487,59.94864584983569
182.1829015,0.3164359004826351,27.181057846865425,3.779819421263409,67.01417914769823
182.210894,0.3163861682797915,27.174808890956776,3.541538045818867,62.78975761980861
182.239306,0.3163356885786224,27.16846694005408,3.5510123704357706,62.95791597728479
182.2679925,0.3162847189057025,27.162064382344216,3.4075598774090343,60.41474268813718
182.2965075,0.3162340516795947,27.155700762550996,3.660114157361869,64.89262366092483
182.324694,0.3161839659131961,27.14941109883925,3.576709226873466,63.41406464386982
182.3530105,0.3161336468885233,27.143093070795743,3.5671175181944346,63.24418971058978
182.3816665,0.3160827222490607,27.13669994865026,3.379436337343863,59.91682051829584
182.410223,0.3160319720992933,27.13032967919687,3.6019928979403133,63.86289654967844
182.4384445,0.3159818150050488,27.12403478013445,3.542874434273798,62.81491494409033
182.4668185,0.3159313845578591,27.11770650494183,3.5089921434071143,62.214365123962025
182.494986,0.3158813188182103,27.11142491804404,3.6410490053216944,64.55591708350406
182.523539,0.3158305655118,27.1050580027274,3.268518701355781,57.951112203206144
182.552157,0.3157796942608878,27.09867723932564,3.5805684124203734,63.48396601377974
182.5801605,0.3157299129972614,27.092434111118312,3.5831816463286663,63.53048127107143
182.6082785,0.3156799258412432,27.086166075661176,3.5014116708699183,62.080863142070704
182.636992,0.3156288775848695,27.07976593074083,3.265162185106223,57.892273787099526
182.6655945,0.3155780242020205,27.073391167235016,3.5539119458110173,63.01207556937111
182.6935525,0.3155283143042482,27.067160661675437,3.600757461958569,63.84284550473368
182.722041,0.3154776587182398,27.06081255698626,3.27814763718852,58.12301614807897
182.7509065,0.3154263302511334,27.05438108581481,3.3951796517327826,60.19822390524584
182.778994,0.3153763827559303,27.0481235766126,3.701398176227523,65.62781955606073
182.8066735,0.3153271584096171,27.04195755801296,3.641997434530843,64.57479501282982
182.835272,0.3152762972369015,27.035587435904905,3.222892047766482,57.14397307663223
182.8641415,0.3152249515051736,27.029157584903167,3.505155518488169,62.148871973802045
182.892317,0.3151748375540368,27.022882915343057,3.599710690501124,63.82558598789826
182.9204885,0.315124728204783,27.01660974011416,3.513750222887656,62.301621962848834
182.9489575,0.3150740871186053,27.01027092944668,3.4464844004548287,61.10912308349704
182.9773885,0.3150235110389058,27.0039411911916,3.5515085514646283,62.97147485499815
183.005686,0.3149731698607717,26.99764177968421,3.5377965754141067,62.72853103511839
183.034014,0.3149227718289381,26.991336181186853,3.562130066909376,63.16017064755584
183.062262,0.3148725135258233,26.985048988809485,3.615450049093194,64.1057735543748
183.090605,0.3148220835789378,26.978741251281573,3.52132775626398,62.437066677133046
183.1188375,0.3147718476174402,26.972458700387588,3.684715400299809,65.33430089013156
183.147219,0.3147213438766031,26.96614358928024,3.449985398368196,61.172442266640026
183.175631,0.3146707831833729,26.95982228903634,3.6676090845471383,65.0313647090453
183.2038255,0.3146206068798917,26.95354996877798,3.5688350205524286,63.28015814593602
183.2323135,0.3145699055410582,26.94721294892968,3.5009521995615542,62.07668745190569
183.2607175,0.3145193509763662,26.94089520733888,3.5959446893788742,63.76122042522985
183.2890415,0.3144689360762238,26.93459584740185,3.546522422175701,62.885075939484814
183.317507,0.3144182665621117,26.928265606846608,3.5175837420212783,62.372132557006495
183.345759,0.3143679743422617,26.921983427603703,3.652199714712932,64.7592670487106
183.3740295,0.3143176464413174,26.915697713838345,3.504311705978019,62.13715937708975
183.4026395,0.3142667113401183,26.90933710308678,3.462692330044509,61.39936021018716
183.431166,0.3142159220643815,26.902995643334453,3.5416243121358635,62.79914083575814
183.4592535,0.3141659116187049,26.896752344672308,3.697585959023329,65.56480024834468
183.48749400000003,0.3141156259621498,26.890475606688245,3.465143818755688,61.4433641746864
183.5158105,0.3140652021549817,26.88418254860568,3.661826952870092,64.93110604975932
183.544203,0.3140146401606973,26.877873173270817,3.4253941940561377,60.738883779631
183.5723595,0.3139644956063036,26.8716168066848,3.776385062241228,66.96282623222474
183.6005425,0.3139143010176407,26.86535511339057,3.398119188415843,60.25559341785356
183.6290955,0.3138634445390914,26.85901178476376,3.5567583647497294,63.06877484118812
183.6574885,0.313812870121273,26.85270457003073,3.4614712387615167,61.37931341274667
183.6858735,0.3137623070295603,26.84639969714133,3.5472661924601905,62.90082532940362
183.7142545,0.3137117481267214,26.840096275498297,3.442493198846935,61.04314773862605
183.7426855,0.3136610971943349,26.83378231130449,3.50007131704585,62.06431843343383
183.770964,0.3136107149963242,26.82750277103099,3.5243712869711863,62.49539425315089
183.7991625,0.3135604723863238,26.821241546702808,3.5684616313792348,63.27740298251206
183.8276315,0.3135097448181621,26.814920816783157,3.395450222056268,60.20967078930579
183.856131,0.313458959875073,26.80859387350808,3.5596811625137765,63.12207339172805
183.884333,0.3134087020684218,26.80233352394487,3.581648985879788,63.51180191723491
183.9126875,0.3133581694782658,26.79603987001656,3.4794612806467384,61.69993206552019
183.941111,0.3133075108667976,26.7897314503307,3.549542242905056,62.942834216137726
183.9692445,0.3132573660942002,26.78348793460129,3.6421658973291913,64.58548482597888
183.997702,0.3132066407559411,26.77717306036493,3.37006841219176,59.760632718933415
184.0262475,0.3131557554399604,26.77083920741842,3.6147702538318014,64.1000610316053
184.05461,0.3131051932336539,26.76454650244133,3.472616420048175,61.57945245829223
184.0827735,0.3130549827094533,26.75829848266036,3.72986373533146,66.14137679110661
184.1109945,0.3130046665830777,26.752038238301854,3.457068540556097,61.30409904988706
184.139475,0.312953884636322,26.7457209671034,3.58115982482709,63.50479212120003
184.167986,0.3129030451239384,26.739397470126093,3.428123533687875,60.791174023826514
184.1963485,0.3128524672365349,26.733107442961405,3.6680660538709824,65.04628245775626
184.2243865,0.3128024648945761,26.7268899026118,3.6089582032455447,63.99829980560191
184.2525235,0.3127522828619726,26.72065092825877,3.6125604939284894,64.06236510673544
184.281069,0.3127013690498661,26.714321905143663,3.405998895599233,60.39953802555315
184.3096795,0.3126503360311722,26.707979004538828,3.6075444557449066,63.973790344633485
184.3379885,0.3125998375646842,26.70170347055389,3.5990850269821872,63.82396218028092
184.36608,0.3125497238838601,26.69547666602646,3.7479721235023753,66.46442637601791
184.394236,0.3124994919290753,26.68923607652715,3.586485166125418,63.60089172433307
184.422457,0.312449140772749,26.682981593084754,3.730453860750029,66.15415077300845
184.4512125,0.3123978326277392,26.676609177391832,3.3131109501692397,58.753357491901234
184.4797885,0.3123468414009345,26.67027706473748,3.8457316640187127,68.19883623945394
184.5078875,0.3122966980550928,26.66405115803363,3.559756121816345,63.12763017139808
184.5364825,0.3122456662310612,26.65771586806664,3.5692534965048366,63.29623983593481
184.564734,0.3121952440950124,26.651457190463542,3.7476768101882127,66.46054689251115
184.592993,0.3121448052422111,26.64519735590488,3.553706121073821,63.02089285174074
184.62134,0.3120942059595752,26.638918533173133,3.706955747412485,65.73879046322287
184.649859,0.3120432962473589,26.632602121627052,3.4741039661353392,61.6096004821516
184.6786335,0.3119919269573863,26.6262296373474,3.5606093034218023,63.14386906149793
184.706923,0.3119414200850861,26.61996506574934,3.723528996783709,66.03328015043117
184.735022,0.3118912499511995,26.61374317163521,3.650427671202135,64.73708411885706
184.763205,0.3118409264479823,26.607503168662856,3.655211857005297,64.82211534688267
184.791483,0.3117904298881077,26.60124262432828,3.573024104854323,63.36476888152898
184.819765,0.3117399227405417,26.594981686277272,3.641867614178087,64.58584225803389
184.84799,0.3116895139378217,26.588733855347424,3.607401748792717,63.97480130625652
184.876566,0.3116384747392991,26.58240882340748,3.452304875905339,61.22444444951793
184.905207,0.3115873158745814,26.576069903017952,3.563092740834735,63.18938345223984
184.933497,0.3115367804470006,26.56980915552136,3.6399018782615498,64.55173691537544
184.961741,0.3114863236847386,26.56355907064234,3.582273031217753,63.5299044475978
184.9903245,0.3114352568390933,26.557234347334862,3.449633826810862,61.17779139218605
185.018534,0.3113848546312517,26.550992860482197,3.785173193772543,67.12863455365759
185.0466595,0.3113345989879047,26.544770432864265,3.4817242404405677,61.74725935704144
185.075617,0.3112828530120098,26.538364427870636,3.329546013814174,59.04860350907303
185.104071,0.3112320031159215,26.5320702927011,3.7708041541273976,66.87439393390481
185.13203650000003,0.3111820226694671,26.525884682489057,3.585861871407536,63.59466578663461
185.160269,0.311131561458226,26.51964048311602,3.611526860217386,64.05001632305503
185.1883415,0.31108138264489,26.51343213545531,3.6761433625185225,65.19617109609301
185.216887,0.3110303546858697,26.507119655098435,3.339543329555796,59.22676482777539
185.24544,0.31097930960263,26.500805991826187,3.671041798936544,65.10607807032335
185.2735775,0.3109290036712185,26.49458466794008,3.5756637934582374,63.41472899851901
185.302039,0.3108781147728725,26.48829217282042,3.4789511739829204,61.699702622068855
185.3303665,0.3108274617567687,26.482029767755748,3.650282620916031,64.7384795609365
185.358839,0.3107765457211598,26.475735772359272,3.415100785470956,60.56766117023811
185.387415,0.3107254408156931,26.46941936482233,3.604314727696012,63.923605673788
185.4154075,0.3106753757427108,26.463232385526325,3.7437901642889897,66.3974360074153
185.4436365,0.3106248839732227,26.45699358577377,3.462026945437701,61.400444782901374
185.4721665,0.3105738500192562,26.45068872191141,3.566967967497156,63.26180215702629
185.500517,0.3105231333527798,26.44442398121405,3.565980809925525,63.24447926499585
185.5290435,0.3104720980011178,26.438120805434583,3.4657127039852447,61.46635425357419
185.5575775,0.310421045368496,26.431816428814592,3.5592072359034206,63.12471776575244
185.58597,0.310370242057148,26.425543766914387,3.5574259655621723,63.09331051542378
185.6141835,0.3103197552181671,26.419311095212525,3.670536529523255,65.09959079087395
185.6422065,0.3102696054918539,26.4131209438653,3.656298376635888,64.84725432489667
185.670527,0.3102189195224683,26.40686551679489,3.493645905167476,61.96266900665015
185.6991335,0.310167717758938,26.400547366129494,3.479849729571224,61.71816460157515
185.7276215,0.3101167241532574,26.3942558336751,3.5412347094184264,62.80706517950189
185.75588850000003,0.310066122237431,26.38801354680176,3.60048000327792,63.85802129653859
185.7840945,0.3100156256337963,26.38178516404677,3.573712305414271,63.38345448587943
185.812567,0.3099646479699254,26.37549837071852,3.4667213682423577,61.48604101679491
185.841177,0.3099134201115772,26.36918165796681,3.496195884555437,62.00898634781742
185.86936,0.3098629528757978,26.362959651675137,3.703781807477462,65.69094835442122
185.897459,0.309812632146935,26.35675661389423,3.5579994336100307,63.10550857827159
185.925627,0.309762183916854,26.350538766920582,3.667511254469772,65.04802485172091
185.9541765,0.3097110483969784,26.344237137573568,3.3639061335660267,59.66337366478668
185.9826265,0.3096600870415784,26.33795789999004,3.7224133273435656,66.02217199511607
186.010943,0.3096093607896474,26.33170855144001,3.430236404612077,60.84018613863872
186.0396525,0.3095579263983055,26.325372899456944,3.520051586089227,62.43337281838502
186.0679615,0.3095072054473715,26.319126052889185,3.651547846294696,64.76584465807053
186.0962585,0.309456501940647,26.312882271966927,3.5152822830963912,62.34914641392279
186.1245175,0.3094058624631713,26.30664729089956,3.6595687054523385,64.9084859483844
186.153048,0.3093547323340049,26.30035282604098,3.3648602649467376,59.68152155169057
186.1813495,0.3093040084873696,26.29410929815306,3.784644087022818,67.1272979855988
186.208941,0.3092545531936298,26.28802279753667,3.744357664730142,66.4129368727231
186.2372,0.3092038974034388,26.28178945438418,3.3938889496206857,60.19691773868055
186.2657685,0.3091526826254163,26.275488255439598,3.5621444648299527,63.18142790340571
186.294127,0.3091018401322856,26.269233784511734,3.517257478784226,62.38545429554036
186.322577,0.3090508293928536,26.26295954152125,3.504286057893976,62.155563378551264
186.3508285,0.3090001703862284,26.256729477919134,3.630773820865336,64.39926627193816
186.3790685,0.3089495278276519,26.250502350077,3.525308567301294,62.52880478176483
186.407652,0.3088982650110679,26.24419988331261,3.454768190032977,61.27780293369253
186.436163,0.308847127933504,26.237913806904544,3.582663649391174,63.54649335201219
186.4642815,0.3087966906350857,26.23171466266439,3.674412914213131,65.17405961502598
186.4924455,0.3087461675218529,26.22550587805304,3.547885839002169,62.92999768254937
186.5206015,0.3086956545453383,26.21929924639222,3.671572972012877,65.12406583739221
186.5488915,0.3086448969103021,26.21306346660279,3.4687582180733085,61.52684444001662
186.5772195,0.3085940668067212,26.20681970128734,3.639755120400676,64.56007849378598
186.605444,0.3085434181354404,26.20059913545501,3.5159365073584734,62.36403045643266
186.6339705,0.3084922231706357,26.19431240100535,3.475706828059932,61.650637117245566
186.6622225,0.3084415165059266,26.188086547257623,3.6770190833628007,65.22162039737631
186.690512,0.3083907382050239,26.18185281274809,3.465254316045816,61.465594159180654
186.7190075,0.3083395857488677,26.17557407097897,3.564062596126045,63.21841072433022
186.747477,0.3082884755468695,26.169301443206837,3.481756916019706,61.75867591706142
186.775996,0.3082372720376321,26.16301829350316,3.543092585674946,62.84682056987603
186.804068,0.3081868667250125,26.156833998434116,3.730907617320539,66.17844630065777
186.832312,0.3081361482002827,26.1506121844757,3.460849437389479,61.38836210879646
186.8607735,0.3080850346535882,26.144342834651862,3.613206486165408,64.09105199631412
186.8892235,0.3080339372803741,26.138076394350065,3.4763747247758925,61.66411189511176
186.9177995,0.3079826090841894,26.131782578244888,3.556027534058664,63.07718398583312
186.946089,0.3079317910218141,26.125552233984667,3.631153541035613,64.40996541427003
186.974253,0.3078811939638552,26.119349894035206,3.638922216188226,64.54795551311796
187.002894,0.3078297354127093,26.11304287971466,3.3826040641486657,60.0015089339034
187.031546,0.3077782524880776,26.10673381643035,3.625511903028261,64.31046195404986
187.059683,0.307727690432816,26.10053851602024,3.659857524862913,64.919884400231
187.087866,0.3076770412315805,26.094333444988525,3.604498073394272,63.93808485263406
187.116232,0.3076260586060773,26.088088442726384,3.563719340770559,63.21492039430506
187.144827,0.3075746597668051,26.0817933882124,3.4833771866239727,61.7899566332142
187.173224,0.3075236122151062,26.075542282457064,3.6641345138420576,64.99651525833598
187.201216,0.3074732881951018,26.069380679941347,3.703198948314234,65.68965297893534
187.229483,0.3074224652209554,26.0631588949683,3.5078168586926344,62.22402575916738
187.2577845,0.3073715756140376,26.05692986763145,3.68227351246894,65.31884724312204
187.2863985,0.3073201193972443,26.05063241630066,3.341648328195897,59.276765540412256
187.3150585,0.3072685757120901,26.04432519812321,3.645479014911908,64.66654333874693
187.3435005,0.3072174193793205,26.038066306858024,3.4550691457339107,61.28907507547296
187.3718665,0.307166395054323,26.031824487215104,3.68733359837441,65.4093797916389
