T(K),X,m,cp(J/gK),cpm(J/molK)
175.112349,0.3289664289983235,28.78506295340065,-12.542799222709679,-222.2165356526309
175.14059300000002,0.32891634313048856,28.77853233746306,-12.162541950431878,-215.48026849894055
175.168799,0.32886632619550654,28.77201168230159,-12.478950612461256,-221.08662780913454
175.19713050000001,0.32881608825380826,28.765463193022473,-11.994404640609611,-212.50265670105466
175.2251875,0.3287663385643096,28.758979313149855,-12.531478020854664,-222.01852383559296
175.2533975,0.3287163190727796,28.752461238852426,-11.794343563269006,-208.95941382518168
175.2816645,0.32866619999816576,28.745931162010027,-12.374678815882373,-219.24179944190246
175.31012600000003,0.3286157375478889,28.739357331310856,-11.964072691403459,-211.96772041174623
175.3384005,0.3285656081082227,28.732827860848452,-11.916007062307164,-211.116751043445
175.36660999999998,0.3285155953426007,28.72631455894836,-11.829663118590327,-209.58759373685947
175.3949875,0.32846528615540144,28.719763632042532,-12.050041936904254,-213.4926917592441
175.423575,0.3284146060984558,28.713165405304768,-11.519608041804975,-204.09549859532228
175.451697,0.3283647526658231,28.70667577143137,-11.660985935524248,-206.60091669685033
175.479895,0.32831476586529346,28.700169743699046,-11.636902806813694,-206.174823609385
175.50840599999998,0.328264225576896,28.693592661226436,-11.216630691296398,-198.72930395116853
175.53691700000002,0.32821368664879413,28.687016745359696,-11.333218580775663,-200.79552110258044
175.565203,0.3281635478859446,28.680493874964846,-10.565761888310526,-187.19870121552515
175.593363,0.32811363376348385,28.674001196457077,-11.025514398437409,-195.34492058799222
175.62186250000002,0.32806311917226283,28.66743139286367,-10.415978259331089,-184.54598125975534
175.6501295,0.32801301795766175,28.660916327656558,-10.260239120777205,-181.78718507501574
175.678671,0.32796243148500465,28.65433914599939,-10.592863496877001,-187.68105033193623
175.7070675,0.3279121032610884,28.64779652400742,-9.308197455066226,-164.920216912569
175.735144,0.3278623433983861,28.641328751701238,-9.667909220867365,-171.29398780402838
175.7634075,0.32781225331810154,28.634819024940146,-8.902616806112091,-157.73515296785223
175.791556,0.32776236822921073,28.628336903106568,-8.460959770436016,-149.9103749160588
175.819613,0.3277126464557928,28.621876959914697,-7.997262241166653,-141.69503828725834
175.84767,0.3276629258227397,28.615418120320847,-7.428466579709567,-131.61752645485012
175.8760475,0.32761263836602234,28.608886620470816,-7.1874458418696445,-127.3474917802575
175.904425,0.3275623520432598,28.602356244770547,-6.144818859365201,-108.87449529915237
175.9327185,0.3275122156852634,28.595846316346424,-5.3815534515270045,-95.35116062100313
175.960852,0.3274623639343519,28.58937430493175,-4.567541500939834,-80.92860905586822
175.9887755,0.32741288535200785,28.582951688842645,-3.66143735837747,-64.87426069468788
176.017191,0.3273625360409295,28.576417016924815,-3.1380797348923237,-55.60144118141232
176.045866,0.327311727992789,28.569823798651075,-2.11447016061983,-37.46492845234706
176.073744,0.3272623331305289,28.56341492028734,-0.03395058713241067,-0.6015501967137162
176.1015535,0.32721306061910715,28.557022854248856,0.1142064366727453,2.023561459818088
176.1299575,0.3271627357758173,28.550495236811297,1.7180031735497592,30.440448020849416
176.157957,0.3271131285751057,28.544061660143928,3.195671297668327,56.62268022288233
176.18605250000002,0.32706335224066946,28.537607101850423,3.839740527010089,68.0348521002042
176.21441900000002,0.3270130967306012,28.53109137689777,5.785833733595159,102.51720927319604
176.24293,0.32696258616330287,28.524543563752335,6.533446744091374,115.76424573808505
176.2711965,0.3269125096766224,28.51805299168438,8.97508787787283,159.02743524557965
176.29900550000002,0.3268632445684043,28.511668527308196,10.379955356023604,183.9204685607599
176.32737550000002,0.3268129865013238,28.505156344277886,11.144614871077106,197.46989840900358
176.355349,0.32676343169934013,28.498736238713064,14.598974243905063,258.67795634901427
176.38329950000002,0.32671391847586906,28.492322463748796,14.042286666774363,248.81476796775337
176.4114595,0.32666403495896834,28.485861676101685,17.809943935669775,315.5746582078049
176.4395355,0.3266143010537789,28.479421218698214,18.02335955351983,319.3570885883348
176.467581,0.32656462196973474,28.472988810237915,21.117531748216734,374.18400036668083
176.49541699999997,0.3265153147574216,28.466605489769698,22.4347093678647,397.52435406449007
176.52363450000001,0.3264653325424019,28.46013573721333,23.717581280681294,420.2569865802784
176.551512,0.3264159533182133,28.453744979299202,27.359057020369388,484.7824684657268
176.57912249999998,0.3263670477413689,28.447416445255588,28.494671562530666,504.90615101384446
176.6073975,0.326316965876367,28.44093664810607,28.40119155554062,503.25120242189246
176.635558,0.3262670875261144,28.43448414001569,33.067825688912556,585.9427014571701
176.6632255,0.32621808305828354,28.428145612008205,34.242877699682865,606.7656565341545
176.6913015,0.32616835572448616,28.421714526676475,34.952773290169496,619.3464064093996
176.719317,0.32611873619996756,28.415298330038375,38.26275472034061,677.9996324159963
176.7473625,0.3260690641796297,28.408876291586747,38.594758961928626,683.8845643097251
176.775328,0.32601953446998116,28.4024735948585,42.74957665211837,757.5085294101298
176.80332800000002,0.32596994426323894,28.3960640203844,42.147203152838735,746.8368034871006
176.83102250000002,0.3259208957024806,28.389725381769384,47.64555322840248,844.2684366830823
176.858187,0.3258727863497977,28.383509014853676,48.05849965677792,851.5881165461728
176.88609150000002,0.32582336697902853,28.377124299982086,47.62745279528532,843.9524474050696
176.914366,0.32577329288462137,28.370655953018815,50.13878974753039,888.4555863626208
176.94197300000002,0.3257244014538179,28.364341304193022,54.56542831423014,966.8980150391959
176.969515,0.32567562563617647,28.35804249999834,53.28903574813224,944.2830268038215
176.9974385,0.32562617469126665,28.351657441479283,55.75455629511375,987.9749288814847
177.02526699999999,0.32557689246647664,28.345295099500934,57.17310302730347,1013.1145626564937
177.05278249999998,0.3255281649986461,28.339005290847478,60.135617117461805,1065.6136783582153
177.08052650000002,0.325479033323383,28.33266422663368,58.899552333201136,1043.7133505922495
177.10862200000003,0.3254292796197876,28.32624382310035,60.68831029991362,1075.4136304624087
177.13620600000002,0.3253804321371448,28.31994128300228,64.1479106426779,1136.72190641202
177.163977,0.32533125390564777,28.313596990001663,61.99683165333069,1098.60720023913
177.1918245,0.3252819405950269,28.307236199614838,65.36534942968059,1158.301897217898
177.2193435,0.3252332093734233,28.3009514046359,65.77737237990243,1165.606395083509
177.247248,0.3251837958611065,28.29457954246654,64.56781358254742,1144.175696665482
177.2752825,0.32513415249460514,28.288178980260827,66.39960441443365,1176.6393640810854
177.3027865,0.3250854488623187,28.281900493820682,69.13356354646973,1225.0901403760474
177.330111,0.3250370633924406,28.275663919578093,68.03260612801722,1205.5838474135487
177.357798,0.32498803631510587,28.269345558231542,66.77875422559285,1183.368088023205
177.3858855,0.3249383003389346,28.262936775350973,65.6403560530941,1163.1981803928584
177.4136375,0.32488915872313867,28.25660550683942,69.1432965156331,1225.2764827190013
177.4413895,0.3248400173643877,28.250275193082164,65.17703713951482,1154.9943542007736
177.46937,0.32479047163877806,28.243893722249737,66.839883966274,1184.4648445565224
177.4971145,0.3247413440325747,28.237567029673592,65.51334245171587,1160.9605851113192
177.5247635,0.3246923857417307,28.23126305742672,66.33118600673825,1175.4568920723052
177.55258,0.3246431310564625,28.22492184310966,64.03115556529704,1134.7012077700654
177.580645,0.3245934365396972,28.218524940705915,63.69921553365315,1128.8221065403884
177.6086185,0.32454390421397217,28.212149852924725,63.500623258002015,1125.306040823697
177.6363435,0.32449481205946307,28.205832340143,65.42687131112133,1159.4447132649177
177.66382049999999,0.3244461591724249,28.199572261185125,65.89902817308524,1167.8151902515901
177.691527,0.3243971000402287,28.19326082434884,65.51108559229536,1160.9436347790934
177.7193245,0.3243478798887305,28.186929593511458,66.93911149010604,1186.2535210312578
177.7473435,0.3242982676328945,28.180548859375588,65.15576934591623,1154.653537834659
177.77556099999998,0.3242483039852247,28.17412387891155,67.44211342024994,1195.1742720579105
177.8032935,0.32419919917707407,28.16781026496048,69.85004038654473,1237.849813802414
177.831236,0.32414972258456337,28.161449777007405,66.70315416000219,1182.0855370688282
177.8591595,0.32410027967413024,28.155094549309126,70.82518827643763,1255.1380882879484
177.8868545,0.3240512413832205,28.148792248398987,69.18363609079138,1226.0505673203547
177.91459500000002,0.3240021225377377,28.142480511398034,70.6827295539048,1252.6205761625383
177.94244600000002,0.32395280803076953,28.136144554692116,67.43673925262304,1195.0993955356391
177.97056800000001,0.32390301365738045,28.129747882291706,68.2836173299495,1210.1110610237965
177.998358,0.3238538071083286,28.12342764837539,67.868799139055,1202.7631335086048
178.0264725,0.32380402593275537,28.117034543756137,63.73390128445887,1129.4881862784005
178.054442,0.32375450143962164,28.11067533733558,65.4084143492105,1159.167111330851
178.0823005,0.32370517341275806,28.10434228404523,59.236516500210804,1049.791799591693
178.110228,0.32365572311837343,28.097994460472908,58.869500371635844,1043.290500371138
178.13802950000002,0.3236064958223235,28.091676184591662,52.787446130117864,935.5064515740651
178.166075,0.32355683636123633,28.085303372499837,49.01851798865162,868.7154709120485
178.19406750000002,0.3235072706096671,28.07894351915019,44.67743432986004,791.7842258807356
178.221907,0.3234579756225905,28.072619332251175,41.988384439677525,744.1303525653839
178.25014349999998,0.3234079775064589,28.066205880371285,35.74711112928472,633.5225192428485
178.278666,0.3233574727866715,28.05972840673243,33.80338078739979,599.0768103436411
178.306868,0.32330753537652895,28.053324643946684,30.310989261947,537.1848207020906
178.335154,0.3232574490134825,28.046902729379898,27.71643266798644,491.2043543042422
178.36307,0.32320801758939743,28.040565720961126,26.459352915345956,468.9271004326365
178.39128,0.3231580653322134,28.034162883089227,21.325971439629317,377.95159935273506
178.419852,0.3231074718087115,28.027678811534358,20.539924394728192,364.02186612450384
178.4481685,0.32305733043293766,28.02125364354484,18.235078684387545,323.17482936018644
178.4765575,0.3230070603871768,28.014812943074276,15.942507387347378,282.5450948905856
178.504607,0.3229573912129623,28.008450166844987,14.913454135470708,264.3081968319937
178.53276699999998,0.32290752605334,28.002063223308472,12.680729737720899,224.7387102140835
178.56115599999998,0.3228572550502128,27.99562524978613,10.890791539096812,193.01645790622635
178.58951050000002,0.3228070447886886,27.989196009264678,9.666229126796031,171.31415119603298
178.61789149999998,0.3227567872347947,27.982761667792715,7.9914786410434875,141.63303281301384
178.64604400000002,0.32270693393588445,27.976380025426838,7.195647394733224,127.5288765194779
178.67409,0.32265726884272894,27.97002340906487,5.972727643115191,105.85530186780358
178.70237600000002,0.3226071783403018,27.963613288851363,4.293360158329785,76.09190896004165
178.730673,0.32255706793490924,27.9572015701407,3.785020529616269,67.08271819724459
178.7588445,0.3225071793385633,27.95081917449696,2.356527704835307,41.765358309883204
178.78729099999998,0.32245680329181037,27.944375371593548,1.3770152297335878,24.40527280141689
178.8157565,0.322406393124141,27.937928163255755,0.9954193273297216,17.64218021314921
178.84400399999998,0.3223563685340014,27.93153121659899,-0.1863642099387349,-3.3030104692007303
178.8723205,0.3223062212509326,27.925119528326157,-0.9656659569320412,-17.114949206559906
178.9006945,0.3222559716226687,27.918695706216443,-1.2445385342438156,-22.057602168976437
178.928866,0.322206080091749,27.912318604955942,-1.8767709595733848,-33.26308115196454
178.9570375,0.3221561880230688,27.90594237372564,-2.913416212554507,-51.63628420450952
178.985331,0.32210607933491325,27.899539403103727,-3.4829787779248798,-61.73117347123748
179.01360549999998,0.32205600372496895,27.89314160485504,-3.611163913825774,-64.00326954961976
179.04210899999998,0.3220055219509741,27.88669287055725,-4.904579025213005,-86.92765392407043
179.070616,0.3219550333675072,27.8802442268276,-4.580967864828333,-81.19227893696991
179.098467,0.32190570601755514,27.873944828817095,-5.042032136946277,-89.36435616271407
179.12660799999998,0.3218558644228867,27.867580689477563,-5.801976513609393,-102.83381211511657
179.1551495,0.3218053128349037,27.86112684850261,-6.219786199622929,-110.2393620475035
179.1833595,0.3217553477262649,27.854748827785027,-6.180273116729396,-109.53934851279527
179.2117145,0.3217051251194109,27.84833888447333,-6.890216381335064,-122.12275809518579
179.239924,0.321655159535677,27.84196268705826,-7.262809008693515,-128.7269910659838
179.268076,0.32160529509946617,27.835600333657187,-7.496023802232902,-132.86090296131604
179.2964385,0.3215550570934244,27.829191261136025,-7.371586853221439,-130.65573802389346
179.3248735,0.3215046899289354,27.82276666409211,-8.393265110221995,-148.76463554975314
179.35310199999998,0.3214546877916786,27.81638957162229,-7.913819524898018,-140.2672089648785
179.3811895,0.32140493465849757,27.810045169016437,-8.489601869652635,-150.47300121970736
179.409361,0.32135503196077464,27.80368262873816,-8.3169905652032,-147.41399549904003
179.43748699999998,0.3213052090774587,27.79733119811013,-8.894583552833419,-157.65196023707853
179.465918,0.32125484510122393,27.79091173654499,-8.98619490394017,-159.27618719132465
179.494574,0.3212040817099648,27.78444232895172,-9.157235061595529,-162.3082706011283
179.5230775,0.3211535876173525,27.778008201284763,-9.351275218118456,-165.74803600879775
179.551554,0.32110314049260674,27.77158101418494,-9.857975506545358,-174.72962702422083
179.5797635,0.32105316550287927,27.76521492091691,-9.32846760121596,-165.34473629622204
179.60740099999998,0.32100420300007754,27.758978712707187,-9.539345170016704,-169.08296528815663
179.635489,0.32095444151812536,27.752641662356666,-9.812677689350226,-173.92822789248967
179.664183,0.3209036055043011,27.746168730983765,-10.344219257850687,-183.3502591219754
179.692419,0.3208535799831167,27.739799945330375,-9.823365376424178,-174.11867792852505
179.72071649999998,0.3208034445650053,27.733418109885328,-10.540511853444622,-186.83060464908237
179.7493155,0.3207527740027704,27.72696911212534,-10.320049696370573,-182.9234465670999
179.777533,0.3207027783979072,27.720606961216063,-10.112496779959391,-179.2450763486356
179.805838,0.32065262677947015,27.714225897738338,-10.870807475470524,-192.68677080615632
179.8341925,0.32060238645526057,27.707834492314877,-10.669995826058452,-189.12790051383445
179.8622995,0.3205525836650437,27.7014996813843,-10.336105892266579,-183.2101578163247
179.890738,0.3205021924597148,27.695090970403108,-11.050871776699163,-195.88013751317146
179.91923350000002,0.3204516991998592,27.688670233565386,-10.835944295880058,-192.07104017320103
179.9476225,0.32040139359114694,27.682274307290832,-11.210080437506303,-198.703315114169
179.9759735,0.32035115424436417,27.675887750597184,-10.55182613166341,-187.0360267939905
180.00428649999998,0.32030098114930977,27.669510558242475,-11.321813795466973,-200.68499675986598
180.0324005,0.32025115961126704,27.66317898167436,-10.734950246154126,-190.28308374930063
180.060717,0.3202009781072233,27.656802596928134,-11.311214145660838,-200.49826830780526
180.08916349999998,0.32015056508495726,27.650397741827447,-11.160191363933269,-197.8218709569337
180.117781,0.32009984785117673,27.643955195799144,-11.296161431978366,-200.23261693322664
180.146231,0.3200494262960198,27.637551162157607,-11.31022970070577,-200.48256986482573
180.1740405,0.32000013874651845,27.63129207630371,-10.86943753655481,-192.669735210991
180.202334,0.31994999221553055,27.624924838473305,-11.522249390274053,-204.2419535394765
180.2311235,0.3198989653582779,27.618446787119055,-11.477524894900867,-203.44977115012892
180.2594095,0.3198488296865134,27.612082821800254,-11.021117213855579,-195.36008640215178
180.2876685,0.3197987406451669,27.605725712338433,-11.538566981349947,-204.53298039309792
180.31615299999999,0.31974825065083334,27.59931866291601,-11.361212870327178,-201.38978229577947
180.344485,0.31969802970538796,27.592946698536434,-11.661435864560964,-206.71215789639658
180.3729235,0.31964761869724523,27.586551565317418,-11.355915198560163,-201.29704301593992
180.4013735,0.31959718600394904,27.580154629364667,-11.69706883862852,-207.34499800845282
180.4293085,0.31954766496075315,27.573874250750805,-11.242200387782272,-199.2824615459711
180.457316,0.31949801410873224,27.56757832712776,-11.685298734910475,-207.1375424931871
180.4860865,0.31944700927760905,27.56111167019895,-11.68235704894426,-207.08600602293345
180.514479,0.3193966732097959,27.554730752801163,-11.505272616144307,-203.947530228366
180.543127,0.3193458827894186,27.54829319539315,-11.570062457521258,-205.09662395426847
180.57196249999998,0.31929475852735234,27.541814294556325,-11.819829901467909,-209.52474209879023
180.6001535,0.3192447755475284,27.535480967480687,-11.512718566148974,-204.081307295832
180.6282295,0.3191949950819678,27.52917422523085,-11.493516864133325,-203.74151111322007
180.6565155,0.3191448408646079,27.52282106459437,-11.819703584093213,-209.52431353976252
180.684954,0.31909441480780953,27.5164344129202,-11.434527322048122,-202.69699951010085
180.7134575,0.31904387203215845,27.51003392753319,-11.803861712700968,-209.24470727683837
180.74166,0.3189938615374445,27.50370178265761,-11.609370667488973,-205.79759647485562
180.76995349999999,0.31894368820596575,27.497349954485376,-11.77543467923155,-208.74199233805209
180.79835,0.3188933307284718,27.49097575481762,-11.572843886717427,-205.15128042551623
180.82626599999998,0.31884382388160243,27.484710145868327,-11.643463358839433,-206.4037376128027
180.854468,0.3187938083388562,27.478381080933037,-11.830593928594151,-209.72160684268113
180.88284900000002,0.31874347381070545,27.472012589184896,-11.555733396426351,-204.8497329954048
180.91155450000002,0.318692562193068,27.465572039401852,-12.053964454831716,-213.68255580128755
180.9398215,0.3186424267256153,27.45923061671468,-11.386827573767842,-201.8566969380209
180.9679625,0.3185925131786395,27.452918190778252,-12.132400868786851,-215.0742509529336
180.9964775,0.3185419346697287,27.446522612246675,-11.60788426403483,-205.77660749642266
181.02466800000002,0.31849193014563587,27.440200546460986,-11.922120417594815,-211.34777957020484
181.05296149999998,0.31844174130825487,27.43385611077828,-11.562481710914755,-204.9729259264782
181.081114,0.3183918009697781,27.42754401555431,-11.604288916310928,-205.7146518135946
181.109362,0.31834168958753084,27.421211231286065,-11.909318301940266,-211.12266006247222
181.1376405,0.3182915224451744,27.414872332962137,-11.982567994918806,-212.4218095829088
181.165682,0.31824177410213533,27.408587273514158,-11.632217969932066,-206.21154638659553
181.19426149999998,0.31819106959224125,27.402182358549336,-12.083533642791108,-214.21292543195105
181.222872,0.3181403083473981,27.395771231078907,-11.615340852735619,-205.9135595087903
181.251036,0.3180903375798388,27.389460872919727,-11.93106907502283,-211.51131156799295
181.2789135,0.3180408734577327,27.383215405221648,-11.361580559065798,-201.41612136713127
181.307051,0.3179909462937216,27.37691239134934,-12.187068875253535,-216.05085619608911
181.33554700000002,0.31794038123848584,27.37052978795103,-11.580066573245269,-205.29059244939037
