T(K),X,m,cp(J/gK),cpm(J/molK)
180.204302,0.3199465041482907,27.62448198426913,4.66026079596828,82.60721740289483
180.232493,0.3198965380087538,27.61813865019239,4.441576300591088,78.7310693390254
180.2605805,0.3198467541149457,27.611819379603425,4.784467781593279,84.80938301395261
180.2890455,0.3197962998828716,27.60541596405014,3.588069337311188,63.60223239652417
180.318007,0.3197449643125448,27.598901668072024,3.6676575097552617,65.0132072851159
180.3463695,0.3196946892194217,27.59252289564775,4.863394556757641,86.20919317209234
180.3746245,0.3196446034084045,27.586169076248268,3.855404974550988,68.34163009571421
180.4031965,0.3195939543670203,27.579744757461405,4.120300062856893,73.03742324328799
180.431292,0.319544148714265,27.573428346614715,4.899687056073288,86.85327263060188
180.4593375,0.3194944304042403,27.56712393483007,4.238671808954235,75.13614013904773
180.4873105,0.3194448393189233,27.560836573082668,5.0733364386274005,89.93194672087742
180.51557,0.3193947389869661,27.55448557734802,3.629560163703943,64.33918938141034
180.5439515,0.3193444210016459,27.548107931710994,4.816075465688135,85.37213222296658
180.57218,0.3192943729025411,27.54176542860203,3.998699571771144,70.88312793954195
180.6010575,0.3192431727217913,27.535277889344027,3.466819970769265,61.454921623953176
180.629496,0.3191927494672513,27.528889747559223,5.044367095178695,89.41972415963671
180.657713,0.319142717532785,27.522552117473133,3.978539875590577,70.52638269814899
180.686148,0.3190922976210337,27.51616628386352,4.5541277484192175,80.72989085126518
180.7143885,0.3190422211460181,27.509824883558306,4.379278869341564,77.6306123030635
180.7425525,0.3189922788749935,27.50350140694155,4.699716099827261,83.31117968356945
180.7708915,0.3189420248096771,27.49713938837533,3.963903247306694,70.2677364489856
180.7994635,0.3188913560512036,27.490725821327956,4.13553238129451,73.31040391943526
180.827761,0.3188411725743287,27.48437462091365,4.540284294552929,80.48565641982022
180.855978,0.3187911303488503,27.47804222903533,4.316344784459394,76.51609962104006
180.884531,0.318740490686243,27.4716351839052,3.821524809721519,67.7445943636125
180.913065,0.3186898831500573,27.465233155008224,4.376200955714872,77.57762625093896
180.941103,0.3186401537695475,27.458943142253236,4.914744795480528,87.12473024266622
180.969454,0.3185898676691114,27.452583646433347,3.683911287376618,65.30567116075437
180.9981865,0.3185389032778492,27.446139327328904,4.061401043359213,71.99774355112817
181.026568,0.3184885598536529,27.43977447423501,4.446525453773978,78.82519477252465
181.054854,0.3184383842116065,27.433431769200347,4.2717249284958445,75.72666047531135
181.082991,0.3183884712605646,27.42712319744041,4.783063096522062,84.79161070883906
181.1109335,0.3183389017298774,27.42085894543369,4.7064849948456455,83.43431304232112
181.1393035,0.31828857216765,27.41449957798356,3.86089641907743,68.44432209906005
181.168093,0.3182374966770433,27.40804691902288,3.8089138402150273,67.52299593438387
181.196379,0.318187312746752,27.401707837566587,4.951156089612562,87.77249199129919
181.2242875,0.3181377968974178,27.395454060606653,4.563491832154581,80.90033645049863
181.252608,0.318087548364417,27.38910867527783,3.955942143151083,70.13006466064772
181.2809815,0.3180372040584983,27.382752133503057,4.366867230259936,77.41507807790195
181.30921,0.3179871152938271,27.376428788031667,4.201402174803293,74.4819568032149
181.3375455,0.3179368349099813,27.370082186093796,4.031619904676003,71.47228409279143
181.3661025,0.317886159685594,27.363686692417893,3.692266074401428,65.45643360285737
181.3944575,0.3178358411176081,27.357337150936164,4.481452552004714,79.4473492054754
181.422705,0.3177857115223187,27.35101238670885,3.830300627475384,67.90390107457758
181.4512235,0.3177350991625408,27.34462765581863,3.789985543338037,67.18938777510868
181.4793,0.317685269416302,27.338342576692863,4.727028087790387,83.80164825487714
181.507319,0.317635539913308,27.332071056523898,3.829367403594368,67.88794439945697
181.535864,0.3175848749692768,27.32568250539128,3.506005755354614,62.15549299490178
181.564371,0.3175342755738002,27.319303166252976,3.880098787149696,68.78772402412947
181.592535,0.3174842831200664,27.31300127647323,4.227154943642511,74.94067070506888
181.6206535,0.3174343695561698,27.30671025223732,3.954920748783017,70.11459719361065
181.6489245,0.3173841833847727,27.300385796559397,3.8823982746790775,68.82908554977254
181.67726,0.3173338807859454,27.29404760183237,3.819058262945388,67.7063586483387
181.70534,0.3172840298453389,27.287767238101534,4.463856267026539,79.13791854767402
181.733626,0.3172338112446847,27.281441482778337,3.381846023439482,59.955566166203226
181.762282,0.3171829337464842,27.275033678691745,3.724210910448861,66.0254271977786
181.7906745,0.3171325220774167,27.26868548556126,4.047231335958069,71.75236869153483
181.8188495,0.3170824945999548,27.26238659908531,4.221887749820897,74.84902510028046
181.847147,0.3170322476068363,27.25606100258535,3.787344972540181,67.14529534250399
181.875605,0.3169817135783935,27.24970020988297,3.836859513927737,68.02332965773432
181.90396,0.3169313604020322,27.24336311740684,3.949875710674167,70.0271866465393
181.9321085,0.3168813718939727,27.23707284358749,4.255773874301335,75.45066018911807
181.9605965,0.3168307783922802,27.23070737807476,3.2013805001334803,56.75747436693037
181.9889855,0.316780358614245,27.224364707650963,4.545067969695992,80.58002739786359
182.016806,0.3167309464668024,27.218149702607143,4.541112887065048,80.51013656545162
182.045199,0.316680515399118,27.211807465737856,3.3117393506594266,58.714541784677465
182.074038,0.3166292899695707,27.20536628783021,3.5008892884519085,62.06820510374532
182.102278,0.31657912636827,27.19905956189588,4.516337672565428,80.07159333500643
182.130255,0.316529427831881,27.192812218321908,3.989904438304189,70.73849297157423
182.158583,0.3164791036227767,27.186487150408688,3.681383117742234,65.26879355670546
182.186907,0.3164287843388669,27.180163632686007,3.9813322798566833,70.58692343112526
182.2150975,0.316378700046701,27.173870570276467,3.940158037522608,69.85712745260017
182.2433,0.3163285922458768,27.16757547669921,3.985524288535787,70.6616535592559
182.2715785,0.3162783472025756,27.16126406770041,3.881880223085919,68.82428757871978
182.2995705,0.3162286090153379,27.15501723975884,4.676055779380153,82.90496144220006
182.327517,0.3161789494836608,27.1487811970797,4.006135876235319,71.02770081650823
182.356036,0.316128270376197,27.142418053952863,3.4587501480575606,61.322879661181766
182.3847035,0.3160773250526711,27.136022435866582,3.73337118620966,66.19204463172024
182.4128555,0.3160272935451936,27.129742464476607,4.621749824220927,81.9430850781771
182.4410385,0.3159772046634411,27.1234562117019,3.6340115201245737,64.43078619598101
182.4694125,0.3159267740028896,27.11712799504012,4.174056215338925,74.00595835435311
182.4974465,0.3158769453434548,27.110876235935333,4.365282075721428,77.39661244404779
182.525641,0.3158268290865225,27.1045893119102,3.763767363559179,66.73192711709054
182.5540605,0.3157763105205395,27.098252851598616,3.822731445544993,67.77756281705233
182.582377,0.3157259726699126,27.09193998871745,3.939226760137041,69.84324364182137
182.6108155,0.3156754155388865,27.085600560717864,3.467619778640101,61.48174082282368
182.639025,0.3156252631247026,27.0793128061324,4.413709347751237,78.25636483464515
182.667391,0.3155748300594481,27.072990794743973,3.1888846369612005,56.54002681508789
182.6955855,0.3155246994958581,27.066707626562188,4.837971608671334,85.77915662909804
182.7235705,0.3154749390342286,27.06047175562606,3.683372963739816,65.30785172005235
182.7519325,0.3154245057766563,27.054152496406463,4.045980982643522,71.73726273780495
182.7801155,0.3153743883620512,27.047873734430134,4.07633987260094,72.27574976238199
182.808413,0.3153240648583614,27.04157007827077,3.868936075672373,68.59856522026878
182.836882,0.3152734338467992,27.03522883793176,3.831902186424069,67.94213031685901
182.865134,0.3152231862517606,27.02893654537917,4.439748434045402,78.7198695286825
182.893706,0.3151723669641109,27.0225736013752,3.2050189143485217,56.82741115148772
182.922194,0.3151216945084656,27.016229982001708,4.70077757751762,83.34858774516833
182.950442,0.3150714463966081,27.00994041255082,3.838183791530277,68.05429944681595
182.978854,0.3150209039816335,27.003614935993493,4.44042326381192,78.73275253623304
183.006781,0.314971221806686,26.997398029774683,5.020501927095444,89.01833092636045
183.035086,0.314920864594426,26.99109757391508,3.685280274317416,65.34375562396094
183.0636775,0.3148699950266928,26.98473395491836,4.470282747332916,79.26287771227106
183.0917765,0.3148199991033971,26.97848054672652,4.850934482429411,86.01248650306347
183.119887,0.3147699801217471,26.97222516759035,4.445040279408289,78.81575611347175
183.14844,0.3147191710961715,26.965871920392537,3.8154013149535513,67.65171991667658
183.176821,0.3146686654552172,26.959557542537283,4.8109747548940485,85.30469983596662
183.2049465,0.3146186118387401,26.95330059639241,4.399708225194917,78.0126463374366
183.233271,0.3145682013890011,26.94699996797119,4.344244060727039,77.02941710823075
183.2618545,0.3145173272418908,26.940642323136117,3.766661090646705,66.78827313047154
183.2902965,0.3144667021937395,26.93431674441728,4.656855792380006,82.57293567643327
183.318327,0.3144168068944541,26.92808326160437,4.721343348648025,83.71663606508022
183.346537,0.3143665893626887,26.921810437941133,4.245148436302817,75.27319003982
183.375037,0.3143158528119327,26.91547371514771,3.998899899032301,70.90702166079724
183.4033725,0.3142654063245108,26.90917414937213,4.556521979976044,80.79480610100187
183.4315935,0.3142151609113878,26.902900614252584,4.245790845564927,75.2852379206678
183.460196,0.3141642334276519,26.8965428552712,3.6462360972924888,64.65428177888855
183.4886535,0.3141135612708967,26.890217908215863,4.564590560868762,80.93858384486296
183.5170195,0.3140630491992603,26.883913873198868,3.8827602394715743,68.84867892387577
183.545382,0.3140125405093594,26.87761118852176,4.523585340682382,80.21195283018649
183.5732865,0.313962844642671,26.87141083708365,4.771637085423576,84.61063427757854
183.601366,0.3139128343018318,26.86517215675643,4.087393890660033,72.47784776643785
183.629759,0.3138622627273255,26.85886438856059,4.105870441436838,72.80568694219505
183.658419,0.3138112126388283,26.852497878537445,3.4418533838348715,61.03145257397437
183.6867735,0.3137607037833362,26.8461997984622,4.732855000480731,83.92392818745758
183.7147775,0.3137108164086483,26.8399801224392,4.177475289822496,74.07603741020579
183.74322,0.3136601449333546,26.83366361477927,3.708415676539524,65.75874695492725
183.771811,0.3136092058989833,26.82731469426018,3.7956174951603545,67.30523350324685
183.8004135,0.3135582433517576,26.820963786080497,3.7485570906089816,66.4709369456244
183.828814,0.3135076377118867,26.814658288435545,4.321615397336822,76.63286307505565
183.857035,0.3134573489343215,26.808393192907268,4.226033582100792,74.93817971582371
183.885485,0.3134066490655929,26.802077811708298,3.9601262341805774,70.22318035581796
183.913592,0.3133565574539096,26.795839113377617,5.054214293594928,89.62442239575674
183.9415195,0.3133067827834267,26.78964079029031,4.332603568565451,76.82859955439902
183.9699315,0.3132561415569075,26.783335479109617,3.9570112004948665,70.16855137380458
183.9984195,0.313205361776055,26.77701385027692,4.149949487199185,73.59008632783417
184.0270295,0.3131543613997292,26.770665700118997,3.5997875026846464,63.83437976827405
184.0556395,0.3131033578718795,26.764318100438924,4.145310440610988,73.50825525240478
184.0841275,0.3130525686901567,26.75799811366172,3.846782280337294,68.2146935338074
184.112196,0.3130025243213291,26.751771722197844,5.042921674895084,89.42599904907956
184.140215,0.3129525651424508,26.74555683459094,3.93574770480838,69.79271271438002
184.1686765,0.3129018138162779,26.73924432978623,3.909229501378501,69.32266747184536
184.1969205,0.3128514471756173,26.73298059446264,4.346748453414853,77.08144840898578
184.225199,0.3128010158538044,26.72670973515235,3.872897863511039,68.6787946331729
184.2536565,0.3127502621028381,26.72039971271189,3.899375843392109,69.14853563671883
184.2816295,0.3127003693083195,26.714197638089768,4.973252214959924,88.1920877778138
184.3098775,0.3126499828438737,26.70793511012483,3.435633690338829,60.92524058285388
184.3382055,0.3125994504609231,26.701655368044115,4.810505931281354,85.30655796474832
184.366259,0.3125494045475271,26.69543699025302,4.078542766200266,72.3265812713993
184.3945185,0.3124989879161858,26.68917346488003,4.451796975762905,78.94589062604284
184.4229495,0.3124482620385126,26.682872447245416,3.713890564412688,65.8604282383583
184.4516665,0.3123970225330002,26.676508572134267,3.901085694741591,69.18026488563375
184.479758,0.3123468958271527,26.67028382290821,5.204768034851734,92.2995031299508
184.5076775,0.312297072817279,26.664097685953003,4.256391428638941,75.48154676187494
184.5361005,0.312246347986477,26.65780049765077,4.147263437916387,73.54651922998445
184.5645315,0.3121956055206643,26.65150204937217,4.321243612398602,76.63206362253179
184.592955,0.3121448730697989,26.64520577319357,4.241913734404692,75.2254634428547
184.6213215,0.3120942389831025,26.638922630733845,4.514152086868826,80.05353120286777
184.6492485,0.3120443860963646,26.632737330333367,5.247756182942716,93.06346174666704
184.6777095,0.3119935765704634,26.626434261038582,3.3861611877615863,60.0501993108406
184.7064155,0.3119423261840078,26.62007744476068,4.535889114022981,80.43971759561946
184.7346675,0.3118918829239805,26.613821664670745,4.234439644703804,75.0940136796789
184.762728,0.311841778206451,26.607608777234244,4.870573312744123,86.37552676588456
184.790892,0.311791485283186,26.601373462409533,3.9533096489274953,70.10882928227336
184.8192125,0.3117409094506237,26.595103991465862,4.544819614430097,80.59902696033456
184.847399,0.3116905694772918,26.588864672961208,4.189047833141531,74.28989204729594
184.875708,0.311640007252984,26.58259872648499,4.307411103318982,76.38920605503795
184.903872,0.3115897005456847,26.576365358543978,4.540376795492307,80.52093835230711
184.9323295,0.3115388660629812,26.570067520726603,3.6961998679587778,65.55014414451999
184.961012,0.3114876260578733,26.56372038423328,4.062191104935871,72.04101728996405
184.989466,0.3114367906747116,26.55742430204809,4.207916810018001,74.6256115788279
185.0179545,0.3113858900654616,26.55112107283592,4.006697021701384,71.05727276462615
185.046328,0.3113351913444057,26.54484377049158,4.452549308659679,78.96452693904608
185.074606,0.3112846596945717,26.53858807382765,4.221243619134455,74.8626130412807
185.1029265,0.3112340485120484,26.53232345128083,4.413054127616084,78.26454871167367
185.1312165,0.3111834882383977,26.52606604940928,4.336222251993319,76.90217623993063
185.1592585,0.3111333676322931,26.519863967929812,5.0014664700688805,88.70042730121763
185.1873765,0.3110831076149086,26.5136455414658,4.263162221776235,75.60690609406706
185.215952,0.3110320261514162,26.50732641111552,3.958422156058568,70.20256736114693
185.244509,0.3109809740389683,26.50101184784157,4.324766904744277,76.69991249254389
185.2729475,0.3109301300632363,26.49472395866041,4.239007810385955,75.17919178106705
185.301226,0.3108795684610961,26.48847191084091,4.698887533651012,83.33544355758049
185.329432,0.3108291328156066,26.482236351773025,4.4400627420734775,78.74537761977001
185.3576565,0.310778660405262,26.475997160926227,4.736555565526219,84.00397987516214
185.3860035,0.3107279652111465,26.469731350266727,4.2142481205708044,74.74094696023465
185.4143315,0.3106773002550773,26.46347019775565,4.747313129320284,84.1952595976132
185.4428695,0.3106262559163028,26.457163091979687,3.703500486129087,65.68307026832326
185.4711025,0.3105757533521949,26.45092384772379,5.347984751843502,94.84893592908834
185.499068,0.3105257255842815,26.44474416244452,4.160023909680096,73.78012407481404
185.5277465,0.3104744184834232,26.43840737883977,3.617041110367972,64.15023964944768
185.5562995,0.3104233320310132,26.43209878373913,4.434117217578155,78.64177117917795
185.5846925,0.3103725279980648,26.425825991149928,3.933178914786798,69.75752926512588
185.613051,0.310321781851428,26.419561268376253,4.497271521856017,79.76231790902578
185.641398,0.3102710524295688,26.41329953169924,3.922520469034268,69.56890139799859
185.6699165,0.3102200121917275,26.407000359267474,4.068826919344189,72.16397042551554
185.698187,0.3101694119292033,26.40075640687434,4.404155117295199,78.1115177531098
185.726248,0.3101191828128318,26.394559158926057,4.478760457042264,79.43493814612185
185.7545115,0.3100685873518317,26.388317623779663,3.9515780297483785,70.08507696520553
185.782973,0.3100176335057406,26.3820328028035,4.053516925073112,71.89327339487943
185.8112815,0.3099669496374491,26.375782202620368,4.283880137229307,75.97922270718307
185.839541,0.3099163495727723,26.36954285342498,4.1452894835839045,73.52138269750287
185.8682275,0.309864980916729,26.36320966730553,3.341331506957294,59.2624569217635
185.8968795,0.3098136699765089,26.356884538042348,4.132851052059082,73.30120670091597
185.924952,0.3097633928722454,26.350687762502066,4.637140121640172,82.24563305623322
185.953097,0.3097129819827337,26.344475403895533,3.969915634654068,70.41175470972883
185.9813945,0.3096622939582291,26.33822980750069,4.303837400658916,76.33452601596562
186.009627,0.3096117183647517,26.33199897850255,4.130807022673061,73.26580572990984
186.038176,0.3095605717174113,26.32569872496958,3.597798925285765,63.812328286272376
186.066916,0.3095090787313165,26.319356752221896,3.8309161141235055,67.947210775555
186.0954425,0.3094579641335224,26.313062317915502,4.112703840100822,72.94536587185816
186.1236635,0.3094073928711006,26.3068357088373,4.553212558254871,80.75872625656089
186.1522395,0.3093561813216821,26.30053119339653,3.429637079059676,60.83044347917525
186.180651,0.3093052604353367,26.294263387653224,4.958023002758685,87.93922383949406
186.2087385,0.3092549161710124,26.288067466264327,4.261146079077241,75.57910995074634
186.2371925,0.3092039108481421,26.28179110867297,4.18387009991504,74.20869915822915
186.265551,0.3091530725538368,26.275536226667565,4.405014962008851,78.13134243476144
186.2937075,0.3091025922626447,26.269326302327453,4.64285368290611,82.35010528311135
186.3218715,0.3090520944025953,26.26311512458396,4.321990738455206,76.6591954111603
186.350333,0.3090010589249983,26.256838742879157,3.93621583652306,69.8169071639567
186.378558,0.3089504433401902,26.25061491554642,4.789375069248098,84.94969368494432
186.40676,0.3088998648252636,26.24439655707956,3.873660870791621,68.70776635049835
186.435084,0.308849063296452,26.238151696394613,4.553151892015036,80.76024781928142
186.463362,0.3087983400458648,26.231917374029447,3.952283090899477,70.1027117311476
186.4916135,0.3087476600985646,26.22568928777209,4.572798704245486,81.10920141634455
186.519858,0.3086969884679955,26.21946313650901,3.9263596806629697,69.64330782609207
186.548205,0.3086461286723592,26.213214782689494,4.263727368364402,75.6275460614269
186.576285,0.308595743687374,26.20702566791312,4.585176097513561,81.3294549703981
186.6046895,0.3085447721362218,26.200765419196,3.604659694074187,63.93775568513992
186.6333605,0.3084933179505236,26.194446830080807,3.975971325480681,70.5241155375832
186.6617645,0.3084423385583571,26.1881874730246,4.273321812195527,75.79861663850237
186.6898635,0.3083919022801767,26.181995708724457,4.680711480708826,83.02498654269702
186.718077,0.3083412561652378,26.175779092663,3.965876485181047,70.34567368968773
186.7462105,0.3082907493398267,26.169580480450172,4.910393649895109,87.09952407410096
186.774214,0.3082404716019365,26.163410882736976,4.256299720668335,75.49756295254005
186.8028205,0.3081891067936852,26.15710881631415,3.547620111899424,62.92730371692537
186.831557,0.3081375040316516,26.15077849705504,4.035218403974715,71.57648250967792
