T(K),X,m,cp(J/gK),cpm(J/molK)
183.5618385,0.3139832330267941,26.87395450428641,3.2937577533084954,58.404820034098165
183.5902505,0.3139326316429055,26.86764172287256,3.350156449504027,59.40505335021079
183.6185365,0.3138822517863522,26.86135750315989,3.3221975984692134,58.909457363343
183.646994,0.3138315635626894,26.855035750025003,3.2973469908600994,58.4689753028027
183.675692,0.3137804439922768,26.84866114590133,3.24875560857344,57.6075164408693
183.7042375,0.3137295930958871,26.842320987596604,3.333053385884822,59.10247291306205
183.732428,0.3136793716718072,26.83606023488548,3.344172912369703,59.29981853685125
183.7607255,0.3136289566911736,26.82977627433198,3.300730565862508,58.52965661360812
183.7894235,0.3135778251594175,26.823403942309277,3.2311785580147023,57.29650600160449
183.818045,0.3135268268872548,26.81704916350314,3.318001312276912,58.8362535104043
183.8464685,0.3134761783951472,26.81073890443058,3.282209297719406,58.20174368401074
183.874869,0.3134255678679091,26.804434305340884,3.321934009092012,58.90633352275671
183.90346,0.3133746148015564,26.7980879747136,3.219405925168129,57.08841760818696
183.932341,0.3133231417816892,26.79167783887941,3.231729475006474,57.307116085110906
183.9605815,0.3132728072302359,26.78541041024164,3.3953016648221688,60.20785851685959
183.98865,0.3132227762324396,26.77918168911762,3.271484219035341,58.012408406459535
184.0169205,0.3131723821297011,26.772908679778244,3.333006802351147,59.103544557715146
184.0454275,0.313121563338486,26.76658373775667,3.205754759517584,56.84717593810393
184.0743125,0.3130700674945397,26.760175483900525,3.220422911184021,57.10745356006154
184.10261,0.3130196159009051,26.75389811050114,3.3675284211013934,59.71623519407729
184.1304035,0.3129700598521238,26.74773306164327,3.3601363666357646,59.58532235848568
184.1587735,0.3129194727820692,26.741440665249517,3.196141072546052,56.67735783691113
184.1878685,0.3128675896663643,26.73498801945775,3.1563935954431166,55.97268081858473
184.2165665,0.3128164112207826,26.728623967313847,3.3073072465531683,58.64902243325976
184.244864,0.3127659438086584,26.722349260555596,3.2613566963261857,57.83434196176034
184.2728945,0.3127159494373936,26.71613427643328,3.3845340270095394,60.01884503971618
184.301356,0.3126651831335505,26.709824255694453,3.146486063244855,55.79764019457712
184.3300575,0.3126139854524556,26.70346156068042,3.311370225580307,58.72175682680002
184.358408,0.3125634106240535,26.69717720245457,3.2411468040879297,57.476626332412266
184.386984,0.3125124302302229,26.6908433849952,3.2473293827799683,57.58643377290132
184.415541,0.3124614804162661,26.68451430523669,3.242284702673392,57.49714286039066
184.4436515,0.3124113239710899,26.67828469537552,3.378794992084747,59.91812490699492
184.4718155,0.3123610688192829,26.67204373725885,3.2332829984407474,57.33784263327945
184.5003915,0.3123100751675701,26.665712000567623,3.264498751070106,57.89158132145004
184.52912,0.3122588059783935,26.65934699775033,3.197650469472173,56.70628269727138
184.557818,0.3122075877997297,26.65298927532157,3.281994664431167,58.20219197339503
184.5866685,0.3121560939899142,26.646598293217732,3.1626527351464886,56.08597411172968
184.6154045,0.3121048010828151,26.64023319671104,3.321933230625908,58.91080286512712
184.643496,0.312054655235175,26.6340113599393,3.346095961296781,59.33947355540167
184.671946,0.312003866039616,26.627710624402088,3.2176348143132647,57.0615179381309
184.700663,0.3119525967163552,26.621351269275983,3.265383831907249,57.90846981476518
184.728915,0.3119021541491542,26.61509538834848,3.344151351536816,59.30550906205316
184.7571665,0.3118517090667728,26.60884011269296,3.2654852400960936,57.91060482141385
184.785895,0.3118004087581038,26.602479728005704,3.2149501285709947,57.01457610058099
184.8145475,0.3117492406243229,26.59613667531501,3.288259278473196,58.31482732052074
184.8430775,0.3116982877287209,26.589821241742907,3.252853463895082,57.68710094503917
184.871596,0.3116473518428211,26.583508850951663,3.2946364542057966,58.42826478321636
184.900313,0.3115960578442651,26.577153023914654,3.199143947197942,56.73493408154696
184.929049,0.3115447262992373,26.570793492637076,3.2885274557492603,58.32027045720372
184.9575865,0.3114937457510264,26.56447838537255,3.2522486967537545,57.67705554228554
184.9861815,0.3114426588834998,26.55815104609242,3.2705625087666017,58.00201285398046
185.014773,0.3113915746531126,26.551824972193607,3.2523451212472807,57.67910512369642
185.043097,0.3113409647843762,26.5455585669056,3.349599441545716,59.40404676458984
185.0717795,0.3112897106972664,26.53921333451458,3.1581754783235643,56.00937099992577
185.1006035,0.3112382000493984,26.53283729148101,3.3074046289096057,58.65608290477736
185.128882,0.3111876606250503,26.52658239435576,3.304718084942296,58.608608306688446
185.157248,0.3111369611989177,26.520308617134926,3.287236597461102,58.298747419406126
185.1855185,0.3110864288406079,26.514056432501803,3.333214459796934,59.11433140929769
185.2140375,0.3110354486211053,26.507749765000884,3.215799499867098,57.03215260852952
185.2428995,0.3109838514842679,26.50136773007921,3.234019693088757,57.35545794724148
185.271723,0.3109323193707587,26.494994691837125,3.224142365344364,57.18045294606339
185.3000855,0.310881607731998,26.48872405319652,3.366673756384635,59.70843435365452
185.328299,0.3108311588237394,26.482486817606357,3.2704592633702863,58.00222532504061
185.3566385,0.3107804809061187,26.47622218783524,3.330416820559118,59.06575661488223
185.3852105,0.3107293834469548,26.4699066284543,3.208629905190005,56.90600342035613
185.414042,0.3106778180481406,26.463534181734737,3.256407282123801,57.75352095514018
185.442561,0.3106268077335689,26.45723127025436,3.291642466186262,58.37860082396158
185.471003,0.3105759313421732,26.450945835555626,3.2825919745028145,58.21825736710544
185.4992355,0.3105254259306987,26.44470715040613,3.352639229107261,59.46075021262055
185.527716,0.3104744730513388,26.438414117855714,3.2130662926178046,56.98552096689424
185.5564825,0.3104230045985945,26.432058352578935,3.26859767403482,57.97057285456256
185.584696,0.3103725217352233,26.42582521793156,3.3661536989419263,59.70096208102632
185.613108,0.3103216798488408,26.41954867686222,3.208112127490062,56.89815695157534
185.6418825,0.310270185341112,26.41319251148827,3.2527127068173103,57.6893511881439
185.6701835,0.3102195343169408,26.4069413863672,3.339571141565828,59.2300248956498
185.69837,0.3101690843720582,26.40071599008352,3.2888466544103023,58.33055417879119
185.726782,0.3101182269171523,26.39444122965619,3.276584089828672,58.11323720840387
185.75548,0.3100668535377668,26.38810375398937,3.2086972373193285,56.90936977723943
185.784216,0.3100154081065064,26.38175833563572,3.266583932434025,57.93621839306704
185.812346,0.3099650436675259,26.37554716633784,3.3815959190118634,59.97624803175281
185.840655,0.3099143548188442,26.369296904772,3.2142964161029983,57.00917752675127
185.8691695,0.3098632940169018,26.363001707236425,3.3163407962144955,58.81922289492968
185.897707,0.3098121880019308,26.356701868153003,3.208630716546262,56.90902490760229
185.926302,0.3097609749591926,26.350389771581277,3.2983603096129186,58.50066256005275
185.9545845,0.3097103175913966,26.34414708432122,3.2909583434659044,58.36954951535498
185.9829775,0.309659458283899,26.337880432980533,3.260147333263858,57.82324444783585
186.01135900000003,0.3096086155361298,26.331616744898263,3.2874160555802074,58.30706392564517
186.040118,0.3095570923993798,26.3252701758356,3.1581535080350878,56.01457252434049
186.0687625,0.3095057702447368,26.318949305149182,3.31826996304445,58.85465117137953
186.0971095,0.309454977027561,26.312694503827707,3.2424978603116834,57.51088399696103
186.125895,0.3094033939109302,26.30634337400247,3.2024608286552434,56.80093201926093
186.154261,0.3093525583981689,26.30008522048557,3.364429122336663,59.6738819774825
186.18249,0.3093019643207054,26.29385770373806,3.2408116426182385,57.4814829257295
186.2109515,0.309250949399325,26.28757930989913,3.298486445063451,58.50461872131397
186.2393365,0.309200067443785,26.28131820381812,3.2577205400728926,57.78173108957104
186.267958,0.3091487573323194,26.27500534641345,3.221661773620024,57.142330727349766
186.2962785,0.3090979826483774,26.26875928750476,3.336270654526966,59.17531143043149
186.324454,0.3090474637908695,26.262545610198853,3.254714753947745,57.72892539278404
186.352999,0.3089962781947024,26.25625085253598,3.2248687516029646,57.199715057792616
186.381609,0.3089449717649923,26.24994217066935,3.2342377731345078,57.36606358069477
186.4099865,0.3088940780335669,26.24368515995018,3.2915127075631974,58.38212713648597
186.438574,0.3088428033885095,26.23738225054352,3.186114914923825,56.51283528505692
186.467196,0.3087914625383601,26.23107213983598,3.2837491126758778,58.24476722773661
186.495341,0.3087409730750548,26.22486758401814,3.315647856483415,58.81073513360515
186.523726,0.3086900488085597,26.218610514082428,3.2148397315019737,57.02283559029668
186.5522825,0.3086388125249761,26.212316036829645,3.2654913356136293,57.92143332480601
186.580801,0.3085876400666346,26.20603033177913,3.227087603320917,57.24041843965278
186.609301,0.3085364964427591,26.19974909814803,3.274363915829228,58.07915244421277
186.637675,0.3084855745830653,26.193496023684187,3.269219884333636,57.98808009703807
186.666182,0.3084344096537629,26.18721402835828,3.2392372969780188,57.45643062055631
186.6943765,0.3083838012749511,26.181001280282484,3.362891223923616,59.64993357464033
186.7227275,0.3083329076266075,26.174754429019952,3.20367452153395,56.825963119523415
186.7513985,0.3082814350814071,26.168437457057703,3.275853115796214,58.106420942739895
186.7795815,0.3082308342532121,26.162228382939706,3.3483703536434843,59.39289018523551
186.807898,0.3081799893464704,26.15599027354942,3.2400370724258583,57.47145905255509
186.8365195,0.3081285923009851,26.14968535467678,3.264571234280441,57.90681505062513
186.865019,0.3080774098451204,26.14340769051335,3.2794886346797854,58.17159072721925
186.8933545,0.3080265174608761,26.137166525191304,3.3096616818860247,58.70697254325876
186.921862,0.3079753116551036,26.13088785002098,3.2301957254887523,57.297569770170206
186.95019,0.3079244237882085,26.12464907986092,3.3565158510733992,59.53842468691566
186.9785295,0.307873510777907,26.118408145237854,3.223303572022436,57.175651276628045
187.0071815,0.3078220317751241,26.11209876452604,3.2621083811957137,57.864150909790666
187.035433,0.3077712678333613,26.10587794223617,3.332223478878507,59.10804410904277
187.063723,0.3077204302050785,26.09964900441365,3.249765014451885,57.645538348459226
187.0925275,0.3076686633630922,26.093307153643057,3.181412987855873,56.43325300600648
187.121092,0.3076173231986843,26.087018510897177,3.312275982339242,58.75473006891525
187.1491875,0.3075668214614755,26.08083347668859,3.3145578596965364,58.79537813711766
187.177546,0.3075158424158983,26.074590900665665,3.2356284131580058,57.39545446730241
187.2058475,0.3074649612511819,26.06836122693717,3.3245149499999225,58.97234828252378
187.233851,0.3074146113161543,26.062197495763527,3.3235528729554606,58.95545334028316
187.2623005,0.307363454858964,26.05593594964332,3.1939242858214065,56.65617977988223
187.290884,0.3073120527467863,26.04964526690209,3.272650381093209,58.0528530903007
187.3195365,0.3072605218060437,26.043339754955063,3.1667425442137804,56.174343109350986
187.3479485,0.3072094186950626,26.037087520182087,3.332753535942297,59.11935975580218
187.375895,0.3071591482700307,26.03093806066792,3.292761698989261,58.41011795963521
187.4042345,0.3071081662577253,26.024702465745595,3.218050355300415,57.0849851985768
187.4329055,0.3070565831017366,26.01839427895302,3.195598716315633,56.68688407732973
187.460955,0.3070061134418114,26.01222317229169,3.395909248513444,60.240377666756565
187.489218,0.306955254945129,26.00600543037473,3.138579224315029,55.675737440935215
187.5180645,0.3069033415932231,25.99965966746181,3.226959126410835,57.243693231237344
187.546446,0.3068522602664102,25.993416537092585,3.269106314917994,57.9915215281409
187.574381,0.3068019778848147,25.98727195197878,3.3540889640814755,59.49922302599387
187.6027165,0.3067509698654771,25.98103960354563,3.155227420237009,55.9717209549964
187.631407,0.3066993179102628,25.97472951114628,3.2582836932924844,57.80004544015848
187.65988,0.3066480526510853,25.968467589324536,3.225009948191273,57.209957614469616
187.688292,0.3065968923695203,25.962219413333973,3.2917811890325988,58.39461591900225
187.716742,0.3065456587927926,25.95596320975993,3.2248384620531554,57.20725294387024
187.7450585,0.3064946607740534,25.94973668850524,3.3372669827439285,59.20186064593405
187.77373,0.3064430184539095,25.94343243541669,3.1360445553999243,55.63241597684259
187.802466,0.3063912549502322,25.93711433087618,3.321571514758814,58.92377990669108
187.831061,0.3063397404459141,25.930827554649905,3.1764442634016308,56.349428936921626
187.8595415,0.306288427253666,25.92456627457466,3.357727665511728,59.56553303199164
187.8875525,0.3062379551138825,25.91840852401543,3.309556031097911,58.71114689247184
187.9156515,0.3061873195705176,25.912231737994876,3.332550501777248,59.11923860643244
187.9438155,0.3061365620178046,25.906040973419884,3.288507438700879,58.33808796244566
187.97217,0.3060854561980252,25.899808646641524,3.274668638050924,58.09275878495188
188.001013,0.3060334648067518,25.89346926683599,3.150679310069725,55.89335029300567
188.0297875,0.3059815917471168,25.8871452619361,3.287290867346219,58.31702653717311
188.0580085,0.3059307115020832,25.88094321244711,3.300168227386856,58.54564438414579
188.0862525,0.3058797848147768,25.874736412363205,3.272933263070229,58.06266098346877
188.1147215,0.3058284473802988,25.86848047332964,3.233262747647001,57.35906564740769
188.143103,0.3057772626719641,25.86224406650529,3.294672743462791,58.44866998520797
188.171355,0.305726306479339,25.856036415709823,3.2652211038609726,57.92635740092287
188.200095,0.3056744649500665,25.8497218453316,3.1591734991612466,56.04519688163253
188.228461,0.3056232929249836,25.84348974877141,3.373703498905539,59.85123455662927
188.2565485,0.3055726182853461,25.83731913251393,3.242372419322168,57.52152157290487
188.2849985,0.3055212845218042,25.83106917334799,3.2672059863565197,57.962254479607466
188.313376,0.3054700764349669,25.824835435998587,3.256021275940177,57.76400117017434
188.341849,0.3054186908437389,25.81858101437711,3.23550382368365,57.40017768929016
188.370295,0.3053673487931995,25.812332816499648,3.2612137326156936,57.85646115421576
188.3986685,0.3053161324197369,25.806100833388665,3.259699326517804,57.82976500488829
188.427149,0.3052647176888549,25.79984563844176,3.230446474108956,57.31096489585211
188.455954,0.3052127118233909,25.79351946696029,3.1722607418531124,56.27886734507482
188.4842935,0.3051615411508392,25.78729581549043,3.367948877629102,59.75073367540181
188.5122435,0.3051110686655919,25.78115797923094,3.2790169435171714,58.17316259098664
188.5408155,0.3050594677098519,25.774883834104543,3.1920855961423555,56.63107860185926
188.5695365,0.3050075922927066,25.768577256412776,3.237991738401208,57.44567524802084
188.59796,0.3049562489032293,25.76233628514329,3.2744341252201794,58.09237663823823
188.62604750000003,0.3049055072499815,25.756169362886755,3.334203074271077,59.15292213158978
188.65428,0.3048544984191328,25.74997087643739,3.234181449168984,57.37858228823104
188.683165,0.304802305252134,25.74362941346492,3.1521798379367088,55.92393523848185
188.711508,0.304751086081845,25.737407216601767,3.392250074032499,60.18328357887504
188.739401,0.3047006749191782,25.731284073093715,3.282683879960931,58.2395944097241
188.768122,0.3046487619081644,25.7249794369102,3.161011375596829,56.08111459861867
188.7963545,0.3045977265044521,25.718782300338635,3.4227972471059864,60.72576972033813
188.8244345,0.3045469614948484,25.71261889956424,3.2054428691121264,56.86972980955844
188.853079,0.3044951705056304,25.70633186137627,3.2579374336532365,57.80124051642525
188.881697,0.3044434219331559,25.700050907376333,3.213183726412265,57.00740505545893
188.9098995,0.3043924193008961,25.693861405865263,3.3851619380134528,60.05877069815363
188.938212,0.3043412123457439,25.68764802147576,3.184807232766331,56.50428987292052
188.9667075,0.3042896689398739,25.681394736292216,3.334151017737903,59.15409664357126
188.995089,0.3042383262712365,25.6751667258084,3.229807867426815,57.30302276611236
189.023329,0.3041872341481129,25.668970019590727,3.3888509792972736,60.124931327227216
189.0516035,0.3041360741668181,25.662765994967245,3.225828275795376,57.23275417124137
189.07997,0.304084742236642,25.656542035372212,3.362749341036114,59.66218871257002
189.108397,0.3040332953020666,25.650305052776737,3.2118536300482816,56.985152841703005
189.1367745,0.3039819324233815,25.64407918016069,3.375964576881504,59.89700921491106
189.1652625,0.3039303639713488,25.6378293136224,3.173473026129242,56.30453261132217
189.1938075,0.3038786867277764,25.63156719094305,3.354489701124028,59.51635174866699
189.2220215,0.3038276031864179,25.625377925375396,3.2668566862971367,57.96171131446823
189.25051,0.303776017047629,25.6191286869524,3.283695289873023,58.26064078095947
189.27883,0.3037247304380849,25.61291665199206,3.318098008086555,58.87120150968872
189.3070435,0.3036736311455709,25.60672821566822,3.311345339862358,58.751565499993546
189.3355965,0.3036219113080667,25.600465552366085,3.2229212109382543,57.18287015970803
189.3645345,0.3035694882778752,25.594118689949315,3.2047658883937906,56.86091994193611
189.3930645,0.3035177986180036,25.58786155224274,3.340883220831538,59.27617350645132
189.4211065,0.3034669875248597,25.581711671953048,3.3403318010568315,59.26656327576636
189.449259,0.3034159706371726,25.575537786126663,3.300522909594855,58.56041741641255
189.477438,0.3033649001225997,25.569358316255947,3.326909144203635,59.02875590759768
189.50593,0.3033132566245688,25.563110437360766,3.2052004092965936,56.86946865559213
189.534258,0.3032619046765077,25.556898748834588,3.373973578501793,59.86416685538088
189.562525,0.3032106576183022,25.55070066087997,3.22188996721748,57.165927156458906
189.590922,0.3031591691394278,25.54447429233515,3.3326740236402297,59.1317417169542
189.6191355,0.3031080076702568,25.538288379527053,3.27180416204364,58.05189685660235
189.647139,0.303057221370842,25.5321487265752,3.4031491009314805,60.3825377726093
189.675898,0.3030050590599139,25.5258436563762,3.0740297395249137,54.54309198385016
189.7050535,0.3029521715125202,25.519451887330906,3.289003028028288,58.35758150365059
189.7331295,0.3029012363635031,25.51329699385255,3.3787669781247858,59.95046097488069
189.761282,0.3028501567067483,25.507125541579533,3.268343811815227,57.99136068846252
189.7898885,0.3027982474331486,25.50085478130519,3.247657911163968,57.62449581920001
189.8179875,0.3027472532809453,25.4946954789608,3.41736769834955,60.63590264932444
189.846121,0.3026961907593133,25.48852882132808,3.237054154987409,57.43668668878888
189.8748995,0.3026439515819492,25.482220997278738,3.230617856886711,57.32265664494216
189.9036015,0.3025918452352271,25.475930153756146,3.258950403680737,57.82555035779505
189.93183,0.3025405926018815,25.46974329676317,3.362892714299869,59.670038466180685
189.959982,0.3024894730332436,25.463573408079657,3.2756834603158,58.12279786580502
189.988661,0.3024373905144841,25.4572882259082,3.20503616513606,56.86942287120048
190.017039,0.3023858486510278,25.451069212521357,3.36060845638311,59.63003873173231
190.045321,0.3023344752207999,25.4448714365892,3.235925282894375,57.417852542142775
190.07374,0.302282846959591,25.43864383692015,3.3297903696907003,59.083558533646055
190.1016105,0.3022322093182025,25.43253662484179,3.400783048838707,60.34342343921407
190.129927,0.3021807554181051,25.426331874818302,3.198917894437327,56.76170053775283
190.1587505,0.3021283741006096,25.420016228731672,3.2492487269959773,57.65494633665561
190.187262,0.3020765536687262,25.413769141796617,3.2889910366207977,58.3603114182311
