T(K),Fc,X,m(mol/kg),cp(J/gK),cp_err(%),cpm(J/molK)
183.0002655,0.365098453569337,0.3149828131161564,26.998848410659647,3.1824212365613462,0.3565755556131316,56.42735361152123
183.0303255,0.3649909777602149,0.314929334146008,26.992157179297372,3.1552903329941957,0.3548490637338174,55.94646932192778
183.060141,0.3648828066080734,0.3148762872589945,26.985521041687786,3.2566364408868878,0.36185889236513835,57.7436142090902
183.08989200000002,0.3647770013509186,0.3148233522332041,26.978899922159762,3.1743843312668045,0.3563769829794827,56.28536886614888
183.119578,0.3646692086840432,0.3147705299612567,26.972293925613325,3.2750818439191542,0.3630182941011874,58.07102466062744
183.14946600000002,0.3645637876383066,0.31471734531615786,26.96564363928133,3.1084626484136133,0.3524261826449718,55.11684072750075
183.179621,0.3644544587299373,0.3146636825467883,26.958934613720807,3.184203892347432,0.35803107324463374,56.460000122588
183.2093335,0.3643470346836182,0.31461080426426663,26.952324693903318,3.232542187050081,0.3611798079976277,57.317274456290875
183.2392105,0.3642408019811234,0.31455763023777156,26.94567883374994,3.1280382877735806,0.35465456949080215,55.46445121724196
183.26912549999997,0.3641321098129195,0.3145043855609593,26.939025176590693,3.2155196216418296,0.3604792648600963,57.015791371213524
183.298876,0.3640255196288813,0.3144514306597026,26.932408756006673,3.173389088789457,0.35805894691420537,56.26892809017816
183.3286765,0.3639179261776773,0.31439838373252355,26.925781862046946,3.1952784099912503,0.35947908812629387,56.65723164219803
183.3582675,0.3638108917507391,0.3143457067156463,26.91920219388099,3.229870216415385,0.3625329487027545,57.27077175790478
183.3882585,0.3637047233345957,0.3142923145500479,26.912534231046187,3.0700919906384976,0.35177085240326916,54.43781541325522
183.4181845,0.3635947205783162,0.3142390349948014,26.90588136675821,3.2470444212369594,0.3633143516295295,57.575651833491605
183.4477445,0.3634889364658685,0.3141864039943218,26.89931050053119,3.180232144433983,0.35888859214425833,56.39112690742202
183.47754500000002,0.3633814874025947,0.3141333416908905,26.892686807946795,3.1769871322962087,0.35853874123025864,56.33375937020041
183.5072235,0.3632738838439392,0.31408049351205725,26.886090862848903,3.2219676867255873,0.36173979257990985,57.131520386808454
183.537356,0.3631672305853253,0.3140268337123636,26.879394659756755,3.051996169890397,0.349686854777459,54.11777445254104
183.5675075,0.3630562617145183,0.3139731368458575,26.872694879715187,3.2257371803483013,0.36090401370801467,57.19871442113639
183.5966975,0.3629493853564379,0.3139211492213166,26.866209361685822,3.3520513801648444,0.36916313748869767,59.43869363422074
183.626002,0.3628452795240573,0.3138689545930141,26.859699008374122,3.1950963552232006,0.35860272929744885,56.65573198288367
183.65589,0.3627374915055465,0.31381571749243486,26.853059645442233,3.1709611176395223,0.35714534853831503,56.227936302095756
183.6857665,0.3626290815622903,0.3137624976375263,26.846423462910835,3.198025474285615,0.35852621159946085,56.70801925582809
183.71565850000002,0.3625212904969791,0.3137092469157099,26.839784461598345,3.1651226090592544,0.35691356619858966,56.12475137132521
183.7454325,0.3624126814521806,0.313656203149638,26.83317228655751,3.2332345721485933,0.36131479008593,57.33270509935239
183.7749315,0.3623056588427857,0.3136036460906722,26.826621789968186,3.2493446890458513,0.3622755042005276,57.61854912226361
183.80506350000002,0.3621989561478279,0.31354995792051044,26.819931351983804,3.0480602497232154,0.3487514790699816,54.0494682354091
183.835215,0.3620872587758144,0.3134962316278382,26.813237210870287,3.2444072281838534,0.3617524036841271,57.53135238326585
183.86462649999999,0.3619803280964035,0.31344382065332344,26.806707964142195,3.26826513917225,0.36358930037118586,57.95458709055414
183.8943965,0.3618739100794083,0.31339076752975004,26.800099735051234,3.138107563043489,0.35467148837230617,55.646734980494934
183.924376,0.3617642919896589,0.3133373376790418,26.793445613347068,3.209689511743429,0.3591576864901243,56.91624265186854
183.9539665,0.361656266944135,0.313284597770081,26.786878432053413,3.261730549672125,0.3622260282968432,57.83924299506884
183.983519,0.3615493863942015,0.3132319222630511,26.780320276895836,3.221669129869916,0.3598012593555404,57.12901982767603
184.01322399999998,0.3614415511194128,0.3131789715684637,26.773728874450136,3.2109135959330617,0.35930026541037335,56.93846847142349
184.043093,0.3613334761981841,0.3131257251171864,26.767101680437428,3.167546452115463,0.35678854386005215,56.169620192992404
184.07278250000002,0.361224361157266,0.31307279524188286,26.760514906562605,3.2634960055779714,0.3628795436311018,57.87125555516634
184.1022205,0.3611175049791827,0.3130203103613329,26.753984511571094,3.24108464662689,0.3618251625084369,57.47401093461195
184.131895,0.3610101329882538,0.31296740040951343,26.74740223729505,3.1854797440559817,0.35818020835973835,56.48814387028217
184.1617335,0.3609014689073498,0.3129141945695428,26.74078417526117,3.1850270734315305,0.35852246267517035,56.480289813925964
184.1912595,0.3607928153705539,0.312861542511811,26.734236004930526,3.2784842706202375,0.3645636473804599,58.137748680763124
184.22085800000002,0.360686340867015,0.3128087577138655,26.72767233334745,3.1618223386938618,0.3571588508612355,56.06913940144402
184.250628,0.3605770712771942,0.31275566356451395,26.72107121175434,3.223675175152982,0.3611565890755598,57.166161279306564
184.2806,0.3604692597780911,0.3127022055855371,26.714425886118946,3.101017450755359,0.3532962262869067,54.99121348766416
184.31062150000002,0.3603584272397393,0.3126486557144319,26.707770173766754,3.206204420415506,0.36010143176944626,56.85669900094512
184.339884,0.3602501660842564,0.31259645619798254,26.701283295053972,3.3293093410160877,0.368644655164965,59.03993744933213
184.36938300000003,0.3601447861942126,0.31254383130482355,26.694744551602422,3.1294649073893663,0.3555967614365285,55.49618665807374
184.3992445,0.3600347102999744,0.31249055613378734,26.688126029519808,3.208596583934848,0.3610934506888146,56.89963837588214
184.428717,0.3599265954977618,0.3124379714069255,26.68159428903833,3.2399202362812303,0.36347125957222737,57.45529035987991
184.45838750000001,0.359819274142023,0.31238502982004673,26.675019230884537,3.142670052385977,0.35701297135751564,55.73086928058337
184.4883785,0.3597096234021871,0.3123315126838758,26.66837372158603,3.140482040218356,0.35699308135307267,55.69223967064133
184.5181905,0.3595998689541798,0.3122783112842444,26.661768444129624,3.199323251373763,0.3607381379595174,56.735883602293065
184.5477395,0.3594914384002594,0.3122255755903491,26.655221995371047,3.2276901183417794,0.3621169389051977,57.23910743394435
184.577124,0.3593835203184288,0.31217312987391405,26.64871253910118,3.260680584850898,0.36382825963621895,57.8243274468758
184.60679449999998,0.3592762069241489,0.3121201700406984,26.642140278934356,3.1500157246202294,0.35644141187531453,55.86198703075427
184.6366865,0.3591661048715123,0.31206681110875933,26.63551951441617,3.197655459340421,0.3597147852085073,56.70699850345946
184.66668149999998,0.3590570792280242,0.31201326453040584,26.62887649918357,3.1194956484522165,0.35420581087694136,55.32108855775923
184.69658900000002,0.3589461306078003,0.31195987036416783,26.622253421846175,3.2198686450708096,0.3611046222037886,57.10127742887706
184.7262485,0.3588376568028465,0.31190691520020875,26.615685814109586,3.188007953415391,0.35936852198822516,56.53643116939869
184.7557665,0.3587284373945514,0.31185420894778626,26.609150080574828,3.2584679468884294,0.3641742204124805,57.78615076825053
184.7853605,0.3586209139267376,0.3118013632439049,26.602598059706015,3.160214562865958,0.35799182334177126,56.04388142090891
184.81505049999998,0.35851104666015,0.3117483423265158,26.596025326339575,3.224568322535048,0.3624116811501943,57.18531865031377
184.844626,0.3584027291516105,0.3116955220982493,26.589478478251635,3.1951428640089925,0.3599712489500551,56.66365249664054
184.874163,0.3582936134452785,0.31164276684121844,26.582940685954036,3.241946916853096,0.36263532965358486,57.49386481454989
184.904158,0.3581854901872652,0.3115891896729806,26.57630206236273,3.0642734237811244,0.3514698023834604,54.34310627227094
184.93397,0.3580729135369068,0.31153593548053476,26.569704481886752,3.301074431086813,0.3670782388139067,58.542813986365175
184.963755,0.3579660475928068,0.3114827256211325,26.563113413085183,3.070083364684172,0.35149102142652305,54.44647617268641
184.9938835,0.3578535763340115,0.31142889813107616,26.556446875262434,3.193673246503445,0.359342781117819,56.638459917672876
185.0235545,0.3577440899880921,0.3113758840813806,26.5498821007736,3.211420210548693,0.36065046168215587,56.95336886777972
185.053027,0.3576348973842908,0.3113232208233316,26.543361765807838,3.261373714181867,0.3636886088214213,57.83945157653039
185.0826405,0.357526784450879,0.3112703017136003,26.5368107577986,3.1777704450362725,0.357902664429057,56.35694535162639
185.1122995,0.3574164613719102,0.3112172973576033,26.530250205970507,3.2619138370343155,0.36260821022344075,57.849383533250965
185.1420845,0.3573079229285492,0.3111640638419009,26.523662306365477,3.154060698509957,0.35497920428268476,55.936801451996935
185.17188099999998,0.3571965776162317,0.31111080576437977,26.51707238597616,3.2689545874018457,0.36232605153238673,57.97460552506817
185.2012655,0.3570878635549138,0.31105828015141485,26.510574095465607,3.28661980741721,0.36335798578395473,58.28807295388985
185.23089800000002,0.3569794704610939,0.3110053072522409,26.504021471711848,3.1942097446254767,0.35716203956970244,56.64935702192885
185.260817,0.3568688327981207,0.31095181811801176,26.4974060131745,3.19553006470704,0.35733528175942497,56.672947570412155
185.2904495,0.3567582299487059,0.31089883714151395,26.49085441526445,3.2799811689702154,0.36315288786702177,58.17087133308471
185.3198795,0.356649619478123,0.3108462142206993,26.48434809148255,3.257792959447172,0.3617618807078803,57.777535867291036
185.34983649999998,0.3565404236106636,0.3107926448758237,26.477725771881314,3.1205659088030817,0.3527084077119046,55.34396059940976
185.37980499999998,0.3564278195344525,0.3107390508010133,26.47110142521587,3.2516200641057305,0.3612534577482508,57.66841452475836
185.4093805,0.3563184461510226,0.31068615544620753,26.464564451922435,3.233955068678478,0.36023775249969575,57.35529555420096
185.4388605,0.3562086602007553,0.31063342682287926,26.458049082256835,3.2792609917239384,0.36324497186636034,58.15898822395925
185.4687295,0.3560999036446259,0.3105799982663151,26.451448242464043,3.1185554532629274,0.35306684800300703,55.30898231074673
185.498465,0.3559871399511107,0.31052680433608043,26.44487740591338,3.327428804415073,0.36625189748454956,59.01362590988786
185.527735,0.3558792823284262,0.31047443905821154,26.438409919780135,3.2638295202822634,0.36190677991373293,57.885835207319474
185.557692,0.3557698802842961,0.31042084049890145,26.431791131802257,3.11523301237546,0.3522217075204687,55.250563950909076
185.58763,0.3556568295112247,0.3103672716643443,26.42517704245423,3.2670309320340953,0.3622036913574015,57.94297178041204
185.616938,0.3555474756272028,0.3103148259551261,26.418702619610947,3.304002062175139,0.365271037325558,58.59885648117374
185.6468375,0.3554390128230678,0.31026131752948605,26.412098019145457,3.0837452403236876,0.35056335160288216,54.692611695753456
185.676737,0.3553251680567014,0.31020780479920584,26.40549391213898,3.2981311198769654,0.365071972971568,58.49509175515882
185.706072,0.3552166129367388,0.310155298185893,26.39901496780056,3.246512584695887,0.3619096532992047,57.5797683871101
185.73571650000002,0.3551068736660349,0.3101022333594433,26.392468145892355,3.195237285062123,0.3589249046527166,56.67052890680136
185.76533,0.3549959226822392,0.3100492197531264,26.38592864880681,3.251431636980236,0.3627010369993647,57.66736455019209
185.795153,0.3548863215383053,0.3099958267734637,26.379343369778343,3.130613991171767,0.35453105686300046,55.524714582783275
185.82485450000001,0.3547737150761172,0.30994264698461393,26.3727853978345,3.2870500168686894,0.36516635641529516,58.2994497872986
185.85439200000002,0.3546649265246279,0.30988975652871464,26.366264108040852,3.172474875120659,0.35819566294562183,56.267504998160774
185.8839175,0.354553447854143,0.30983688325459596,26.35974593575456,3.2812427833067086,0.3653396618928982,58.196806710487415
185.9133095,0.3544446568300363,0.3097842447570419,26.35325769851785,3.204689577590305,0.36085857685612005,56.83921544682534
185.9430375,0.354334080605039,0.3097310001428302,26.346695757874002,3.1719904790387385,0.35855295860413433,56.25942822599369
185.9727655,0.3542226879832307,0.30967775111820284,26.340134286056227,3.2042526537650864,0.3606293884647131,56.831814722580695
186.002684,0.3541120173619727,0.309624156399865,26.333531239091922,3.1156039337530284,0.355206978871888,55.259678731567604
186.0326865,0.3539991053381085,0.3095704066898371,26.326910126214127,3.1772370367600047,0.3590192405171354,56.3530042029579
186.062052,0.3538877111922762,0.3095177937739047,26.32043004671428,3.311051747561132,0.36794550112512153,58.726584274778176
186.09155500000003,0.3537794680879773,0.30946493011012055,26.313920078333567,3.1366130723231906,0.35658214797276144,55.63281608278156
186.12118,0.3536669503782157,0.30941184339809363,26.30738364534774,3.272369672090156,0.36528181009799376,58.04085256725876
186.15097250000002,0.3535577015132887,0.30935845202291956,26.30081071347991,3.0843100869365028,0.3532748368311159,54.70547511220359
186.1807005,0.3534438326276228,0.3093051717146964,26.294252467916547,3.285900854957471,0.3666524795342017,58.28120848060182
186.2101045,0.3533349731810494,0.3092524676380093,26.28776614577194,3.1731784426835925,0.3595782169495311,56.28204989727504
186.23992800000002,0.3532234359837184,0.30919900709740694,26.281187736309672,3.1518749412216143,0.35822217098065284,55.90436600263405
186.269408,0.3531113368705097,0.30914615778679194,26.274685540449454,3.2835618814096605,0.36673426924646657,58.2402562014584
186.298716,0.3530022813170146,0.3090936123580719,26.26822171819169,3.214840214865871,0.36145643782324355,57.021518488425066
186.328444,0.352891377821838,0.30904030936011584,26.261665708799853,3.1668987295212827,0.3581897408080834,56.171354375103185
186.3583515,0.3527790747002372,0.30898667986074985,26.255070562062862,3.173706798227916,0.3575764959575577,56.292283158456684
186.38797599999998,0.3526667265531013,0.30893355321383814,26.24853826342744,3.262593468599028,0.36364945607404525,57.86905002085173
186.4175245,0.3525564534081977,0.3088805582674626,26.24202315885836,3.1959345308774223,0.35964108474339956,56.68688472442283
186.446974,0.3524445800518471,0.3088277362974749,26.235530313891285,3.2873952295877475,0.36558364733952237,58.30931756720289
186.47661399999998,0.3523349569541833,0.3087745680067751,26.228995901508558,3.1313090364423175,0.3553483736549464,55.54094944269117
186.5067235,0.352221553552054,0.30872055275313975,26.222358426218378,3.138595169761977,0.35637816130429445,55.67035896038399
186.53634849999997,0.3521082998726507,0.3086674019628727,26.2158281899152,3.281720426054367,0.3656117024663814,58.20919985902583
186.56563799999998,0.3519984471736839,0.30861484849135745,26.209372328829673,3.2441810001811207,0.3630799634098156,57.54352211929318
186.595385,0.3518876243139237,0.30856146943284873,26.202816054226016,3.1393721324383645,0.3559353925812984,55.68465052793506
186.62536849999998,0.351774227620207,0.30850766117626327,26.196208087885942,3.164331180662098,0.3582753712153625,56.127535921547754
186.65508499999999,0.3516615240949718,0.3084543272921939,26.189659392001076,3.211961400350507,0.36177629988163656,56.97255516924589
186.684538,0.3515500429676766,0.3084014616112517,26.183169182038593,3.237398259022789,0.363437727708257,57.42391941544943
186.713877,0.3514392308556537,0.308348795868774,26.176704504630862,3.240607058455616,0.36412761338758703,57.481010447729886
186.74336449999998,0.3513285145286118,0.3082958588339062,26.170207518350296,3.1925893352619625,0.36088459040087795,56.62945776745039
186.772814,0.3512164846989652,0.30824298527660987,26.163719315282954,3.263482377775453,0.3647646299023997,57.88711950598019
186.8023895,0.3511059597094738,0.3081898807152232,26.15720376358321,3.1655462531530847,0.35799828859391614,56.150116229541204
186.83223199999998,0.3509928797920042,0.30813629186468294,26.150629806988103,3.1884909463866227,0.3594323682284801,56.557281302929105
186.8617425,0.350880238155709,0.3080832943633724,26.14412939505634,3.2739661248678207,0.36473433274852374,58.07361272655787
186.89120350000002,0.3507695721639856,0.3080303809516935,26.137640290499792,3.2032049652446855,0.36008888486013146,56.81862442994209
186.921046,0.3506572073869771,0.3079767774353111,26.13106756589824,3.1497847629532143,0.35695835691026623,55.87122648750479
186.95100250000002,0.3505435545409434,0.3079229641629902,26.12447014570567,3.1644261360578203,0.3580895354006318,56.13111076476482
186.980387,0.350430226537796,0.30787017355017926,26.117999098759142,3.330372369617434,0.368900164948825,59.074871968245404
187.00964950000002,0.3503208108805528,0.30781759730786107,26.111555310289887,3.2088260294732933,0.3603160084761302,56.91902884431922
187.039557,0.3502083099372904,0.3077638572138792,26.104969890751928,3.1403489481124556,0.3554498878811035,55.704536192481044
187.069407,0.3500939037362697,0.307710215411613,26.0983975356831,3.2378375932162395,0.36152693722040247,57.43399911720632
187.098925,0.3499817396889105,0.3076571652726425,26.091898674628894,3.250240215565525,0.362272404196059,57.65417775111764
187.1287865,0.3498697543765711,0.30760349276099896,26.085324583807406,3.136425722403578,0.3546926489904919,55.635458668358005
187.15878149999998,0.3497548812971909,0.3075495751901116,26.078721502962843,3.2094947756290138,0.35908390808950613,56.9317702138008
187.18827299999998,0.3496417815035505,0.30749655767923223,26.072229651675304,3.2934022170394135,0.36458683600652536,58.42034462435987
187.217524,0.3495306361181134,0.3074439676009907,26.065791120320817,3.286987582130669,0.36433170609254445,58.306734612802316
187.246981,0.3494192673307586,0.30739100219124976,26.05930762589692,3.230420604740623,0.36046616039913926,57.30348741751828
187.27644199999997,0.3493064566558735,0.30733802458961335,26.05282363094553,3.2866861263064773,0.364249299323467,58.301742984531636
187.30611299999998,0.349194959575514,0.30728466429117773,26.046293799794494,3.1652929731022685,0.35637085242866834,56.148551313645704
187.336024,0.3490804494164468,0.3072308672126097,26.03971153708329,3.209567065091505,0.3594732737807864,56.93409773791211
187.365668,0.3489670237981208,0.30717754522126134,26.033188411685845,3.243982586441832,0.3615916133513231,57.54476699522675
187.395377,0.3488544477262472,0.30712410117078814,26.026651361688874,3.1833199512308066,0.3581243139332719,56.46885083754172
187.42495200000002,0.3487404255132389,0.3070708930484036,26.02014417112522,3.277906991653242,0.36451727435338843,58.14690672542689
187.454321,0.3486287722463222,0.30701805046172514,26.01368267344862,3.241380467163359,0.3623277089564391,57.49913644737551
187.483923,0.3485162222705047,0.3069647835116143,26.007170282619626,3.203570022221224,0.35998094919239165,56.82858796553217
187.513319,0.3484026903500687,0.3069118821290675,26.000703576631203,3.3061916811838254,0.36641829333519627,58.64918700317195
187.543097,0.3482916150474408,0.3068582880809908,25.99415320523622,3.086884782220479,0.35234282872118594,54.759027667975325
187.57293600000003,0.3481750614814506,0.3068045789666659,25.987589786356505,3.282373335140642,0.3653829356190762,58.22702854724139
187.60249950000002,0.3480634200077508,0.3067513605152223,25.981087331091068,3.164402867845001,0.3577969306583619,56.13448627721104
187.6321775,0.347948870574873,0.306697930699185,25.97456005462939,3.2424770292466016,0.36306749748586037,57.519649068677914
