T(K),Fc,X,m(mol/kg),cp(J/gK),cpm(J/molK)
181.0129415,0.7519930437544577,0.31851273089467785,27.44283026988886,3.0200790577526173,53.53797943249902
181.0426695,0.7519514272206118,0.31845999811013803,27.436163868527803,3.2352916733865675,57.3533017617524
181.0723705,0.7519109036848701,0.31840731143000883,27.4295043257854,3.032002883650739,53.7496837924146
181.10177800000002,0.7518693314041003,0.31835514361211104,27.422911381021315,3.4058572690941036,60.37735079395268
181.1312775,0.7518295901016581,0.31830281079593675,27.41629859771186,2.9903632149202375,53.01183789554009
181.1611695,0.751787733142517,0.31824977982652103,27.40959863127621,3.191318954793049,56.57446539547599
181.190756,0.7517468764655032,0.318197288991335,27.40296793212735,3.1638268517054797,56.087265740848316
181.2201715,0.7517058345996184,0.31814509969592747,27.39637633592419,3.3007654906428354,58.51504421580271
181.2498765,0.7516654217538562,0.3180923948889414,27.389720653702078,3.01832046403698,53.50810060390712
181.2796765,0.7516235477909776,0.3180395196137398,27.383044478123548,3.2436399148416974,57.502687970507104
181.309153,0.7515828418765625,0.31798721643661415,27.376441555643577,3.1776081784291246,56.33225857856545
181.33903,0.7515418341215176,0.31793420066625283,27.369749706545036,3.010141262227955,53.36358813718691
181.3686015,0.7514999873801267,0.31788172505136164,27.363127062260794,3.3308836429539332,59.049866761714796
181.39828,0.7514597970371407,0.3178290576002435,27.356481231914593,2.932837412976866,51.99346562519447
181.4281375,0.7514176224813618,0.3177760704969151,27.34979610179901,3.2082006179052898,56.87528986058813
181.4573845,0.7513769053327278,0.31772416486773636,27.34324842291056,3.2486795579178476,57.593076712528706
181.48712,0.7513363955736548,0.31767139027682156,27.33659214945554,2.9371063156947828,52.06961809397917
181.516871,0.7512942910419911,0.31761858613763627,27.329933179623005,3.2306952965927254,57.27459756856673
181.5463205,0.7512537081288465,0.31756631509705996,27.32334245217803,3.085560316834223,54.70177210148587
181.575808,0.7512124108967422,0.3175139745748202,27.316743975530905,3.192978933984441,56.606293490952275
181.6050055,0.7511716923691267,0.3174621467836611,27.31021113516858,3.2287902744133627,57.24134096641384
181.63446249999998,0.7511311718511052,0.31740985630659896,27.3036209790956,3.0375241177457584,53.85065704505555
181.664244,0.7510897009741859,0.3173569876816705,27.29695898560617,3.03525284972506,53.810554904588564
181.69419699999997,0.7510482466325439,0.31730381244764866,27.290259397015387,2.9358418586984976,52.04830421904752
181.723715,0.7510062668582392,0.3172514073296075,27.283657856949826,3.279647463676083,58.143664652395344
181.7529165,0.750965993909576,0.31719956201260563,27.277127832901336,3.120070795524366,55.31475383269624
181.7823355,0.7509248655592355,0.3171473284102825,27.27054990626609,3.1661144979248697,56.131217134032966
181.81183099999998,0.750883956256694,0.3170949568212195,27.263955612814183,3.07234974716595,54.46905076511309
181.8415935,0.7508425839242155,0.3170421089436756,27.25730237336694,3.009106628102634,53.347989129852444
181.8712985,0.7508008987913567,0.31698936093761465,27.250662733827415,3.0875841191846387,54.739470927329144
181.9005645,0.7507596559458819,0.31693739028319634,27.244121946100133,3.2348081950306917,57.34976366550103
181.9300975,0.7507191659906693,0.31688494326697547,27.237522214622896,2.9421572784155683,52.161526881066216
181.95959299999998,0.7506771463789353,0.3168325606022149,27.23093159235014,3.260926629755709,57.81316547101031
181.988806,0.7506367309803206,0.31678067741862775,27.22440480943102,3.0979442035678515,54.92380441353601
182.018389,0.7505954700784768,0.3167281348304397,27.21779608513688,3.0567591231584683,54.19379355962894
182.0479605,0.7505539894686223,0.31667561036542025,27.211190656144648,3.097262232016356,54.9120461768696
182.0772955,0.7505127297463798,0.3166235036784906,27.2046387698523,3.1756630418185834,56.302200530157734
182.106497,0.7504718801612956,0.3165716318422986,27.19811740598109,3.1632475166471434,56.082249941725266
182.136,0.7504309635789983,0.31651922211295985,27.191529423113597,3.01190829811202,53.39926872676194
182.1658195,0.7503892387491111,0.31646624775467236,27.184871492174,3.0004768718899837,53.196759033208544
182.1951275,0.7503474041574159,0.31641417971756164,27.17832847520265,3.3106002441125715,58.69524727154042
182.22485949999998,0.7503070819569457,0.31636135600471027,27.171691516353352,2.7963626329850495,49.57822865487739
182.25466749999998,0.750264026562899,0.3163083948174905,27.165038314319215,3.28249019310289,58.19722526741645
182.2838425,0.7502234604094487,0.3162565559200227,27.1585270970901,3.1409616729493917,55.688148144539994
182.313216,0.7501821492958995,0.3162043619193107,27.151972274573914,3.1746326987174602,56.28529292357162
182.34252800000002,0.7501409953195435,0.3161522747791401,27.145431869728494,3.176724341471162,56.322546200741755
182.37221399999999,0.7500998258653161,0.3160995205656061,27.138808718231154,2.9737690457269417,52.724358707134336
182.401957,0.750057589728804,0.3160466625409842,27.132173558249665,3.1434422036521847,55.73280125443908
182.4312805,0.7500162285917434,0.31599454755145756,27.125632673918776,3.2043780406090536,56.81335596381809
182.460646,0.7499751401036812,0.3159423554316439,27.119083107915475,3.12867504662432,55.471315033082114
182.49019850000002,0.749933629548977,0.31588982842422164,27.112492526012257,3.1030117249056333,55.01647165145557
182.5196555,0.749891983565922,0.3158374686210856,27.105923930454203,3.1727590958186007,56.25326394243634
182.5488685,0.7498507102845422,0.31578554000927944,27.099410421272893,3.2233988871057853,57.1512823907839
182.5784595,0.7498097199793701,0.3157329368974839,27.092813316172325,2.95300167056001,52.357263222572286
182.6081835,0.7497673502701592,0.3156800947327588,27.08618725191974,3.141308269065641,55.69614349069996
182.63783899999999,0.7497259536197622,0.31562737170947053,27.079577147002357,2.989105774770029,52.99771806084805
182.667296,0.7496837444794532,0.3155749989678727,27.073011966619134,3.254238795000122,57.698778064389494
182.6969095,0.7496428760428722,0.3155223453295654,27.066412587219197,2.9167459914126592,51.715070989749805
182.7266415,0.7496001929149355,0.315469478306738,27.05978748454573,3.210134396591854,56.91713796397624
182.75618250000002,0.7495589584464358,0.31541694822113375,27.053205619104965,3.039546710902194,53.89270411991065
182.7858605,0.749516781828758,0.31536417181155807,27.046593907123583,3.1500524983552167,55.852197626399054
182.8152715,0.7494751285288199,0.3153118675136666,27.040042345888807,3.1994862651135705,56.72885703293743
182.84474799999998,0.7494336740628884,0.3152594440240917,27.033476859188287,3.1283233570963267,55.46726252878897
182.87442249999998,0.7493918035868432,0.315206665641541,27.026867941358038,3.1017963659050776,54.99708853421329
182.903975,0.7493497570813846,0.3151541014843554,27.020286861316677,3.1980312511050157,56.703574280380685
182.9334895,0.7493081994134022,0.31510160215096367,27.013714905566378,3.1162346969467976,55.25342510545883
182.9631485,0.7492662279956016,0.3150488429861717,27.00711143861048,3.1119551311745495,55.177712619142156
182.992846,0.749224228952288,0.3149960125071936,27.000500065059896,3.0946102276991643,54.870339217190896
183.0224365,0.7491821158296506,0.3149433695458037,26.99391317234909,3.1770693231851332,56.332587146861286
183.051886,0.7491403873636819,0.31489097460959403,26.987358318631877,3.1841767636532077,56.45877958060995
183.08124800000002,0.7490986413444156,0.3148387325316511,26.98082358633399,3.239002254732809,57.43106569834608
183.110865,0.7490571287954849,0.3147860338821302,26.97423275304353,3.0546467105451267,54.16240400252574
183.1404935,0.7490146268980711,0.3147333118753682,26.967640012921493,3.238085158793005,57.415153383294644
183.16952350000003,0.7489730493318445,0.3146816520373507,26.96118107796271,3.3914552515576677,60.134769037387464
183.1986105,0.7489322139866192,0.3146298879481302,26.954710085301947,3.2071558973762233,56.86707922073622
183.22833450000002,0.7488904426415242,0.31457698730537503,26.948098022699487,3.036409338385045,53.83968297996115
183.25807,0.7488477654677017,0.31452406321710596,26.941484050869104,3.1986654601889066,56.71687851407591
183.2873405,0.7488059286119456,0.3144719638239183,26.934974139415907,3.2848918409867385,58.24596949951871
183.316531,0.7487645405259615,0.3144200039196397,26.928482642796503,3.2324333073796194,57.31597406937528
183.34573999999998,0.7487228988877315,0.31436800816564453,26.921987652292504,3.268044317211265,57.94758523205211
183.375132,0.7486814261218175,0.3143156836854082,26.91545259372099,3.130176510023171,55.50313870452063
183.404589,0.748639231086318,0.31426324049298554,26.90890370930691,3.2293180013339597,57.26125221531511
183.433951,0.7485975407812151,0.31421096343049115,26.90237656734611,3.180613082093192,56.397801787269884
183.4634575,0.7485555834590659,0.3141584260612862,26.89581792683025,3.1530160547482504,55.90862775702143
183.492876,0.748513448612407,0.3141060423357646,26.889279467167487,3.2390133613564447,57.43368755992471
183.522173,0.7484717093198392,0.31405387192252954,26.882768625385904,3.2330369910432752,57.32788782508482
183.551672,0.7484298881152565,0.31400133872347813,26.87621350877049,3.1366023054260874,55.61808601480889
183.5810645,0.748387539609955,0.3139489920995766,26.86968267163989,3.2941247818508397,58.41144342670308
183.61052949999998,0.7483459895813737,0.31389651325043294,26.863136338231662,3.0916683704500336,54.82165072295833
183.6398035,0.7483034007018452,0.31384437148810646,26.85663304554674,3.395203418701867,60.20413346659454
183.6689285,0.748262363761237,0.3137924920425326,26.850163450738194,3.1645588818136288,56.11448604083873
183.698416,0.7482201674790082,0.31373996374569024,26.843613937921422,3.1776302002202113,56.34643939379398
183.7276445,0.7481780617500718,0.31368789369053424,26.83712255064204,3.2949729097523357,58.42736150351155
183.756903,0.7481365731324545,0.31363576705038654,26.830625095640364,3.1478074140804475,55.81795031522554
183.786383,0.7480943484930478,0.3135832425949674,26.82407905212446,3.159470375245381,56.02493132323732
183.8158595,0.7480521930091542,0.313530721155495,26.817534386122063,3.142593149586884,55.72582658535036
183.845061,0.7480099449135406,0.3134786865229824,26.81105136835496,3.3119012263174272,58.72824702441365
183.8744795,0.7479685440376646,0.31342626198885165,26.804520766327144,3.0257112532502295,53.65354899009031
183.904192,0.7479256405972506,0.3133733102371291,26.79792550034922,3.145477690010392,55.77748243534331
183.933241,0.747883363691283,0.3133215377103638,26.791478093064324,3.3893810659222594,60.10270155871356
183.962061,0.7478423294846219,0.3132701701547129,26.785082078960336,3.2619256103459633,57.84275003246504
183.9916825,0.7478006766717171,0.3132173707401631,26.77850877457154,2.9373434474761844,52.0871902086023
184.0213685,0.7477573090976765,0.31316445298564277,26.771921751380937,3.220703200101062,57.11211328221732
184.0506615,0.7477154376072115,0.31311223246322956,26.765422512242434,3.140890595854895,55.69697924485103
184.0798935,0.74767316450217,0.31306011737970213,26.758937380912425,3.2440639591152003,57.52671099973158
184.1093735,0.7476314351092939,0.3130075567999525,26.752397809201337,2.997239642287231,53.14995729797147
184.138819,0.7475884152252025,0.3129550543480137,26.745866468661674,3.2587372571224082,57.78726118513086
184.16825699999998,0.74754675166761,0.3129025618737982,26.739337367217903,2.998475026442846,53.17218601459759
184.197726,0.7475037189213802,0.31285001070652046,26.73280196464364,3.2369821803430017,57.401825355485876
184.2271065,0.7474619327175721,0.31279761394163386,26.7262867590992,3.0428188534953935,53.95886477615241
184.2566205,0.7474191203518138,0.31274497564432346,26.719742520855746,3.1570282505089398,55.984330762505685
184.286013,0.7473769159608894,0.3126925505904178,26.713225790339653,3.0903362640136693,54.80183149060651
184.3153865,0.747334419377148,0.31264015596839445,26.706713835877473,3.132913092684722,55.55702649893945
184.344653,0.7472922358937285,0.3125879487543315,26.700226161095596,3.1139398182748006,55.22073300569697
184.37428899999998,0.7472500138927242,0.3125350788790029,26.69365714307644,2.915213615998611,51.696799727394584
184.40370000000001,0.7472067301127833,0.31248260687433094,26.68713855893974,3.239201346762804,57.442394160845865
184.433264,0.7471651235264221,0.31242985835013437,26.68058662566275,2.8441887864757613,50.43759013771695
184.46323999999998,0.7471213628706598,0.3123763710765722,26.67394395821052,3.031902557591599,53.7665891084303
184.492903,0.7470785319007897,0.3123234386638874,26.66737121709686,3.043254402885033,53.96806294754439
184.5222875,0.7470356401200932,0.3122709996411059,26.660860739023587,3.2193577638828508,57.09119396963083
184.5517485,0.7469935797070616,0.31221842050358517,26.65433386199069,3.0307671168132795,53.74694278745879
184.5811065,0.7469504318980729,0.31216602159522244,26.647830350312333,3.3055669409963193,58.62035808348314
184.6105105,0.7469086354957364,0.3121135369723225,26.641317193366074,3.0259349550914187,53.6615746070923
184.64036049999999,0.7468653195610687,0.3120602525487844,26.634705800617766,3.066497650489275,54.38107563521955
184.66968,0.7468221972172964,0.31200791144865025,26.6282124500443,3.3185837957538165,58.85173289700406
184.6989695,0.7467803830283488,0.31195562026998486,26.621726279160864,3.077535290355463,54.57714547274065
184.7287545,0.7467373127145511,0.3119024407236846,26.615130926695585,3.039175408036138,53.897034786880255
184.75807400000002,0.7466940274571972,0.31185008860369967,26.60863918773043,3.3446722706563814,59.31492503145279
184.78752350000002,0.746652272344874,0.3117975006492583,26.602119199297395,2.987406771383625,52.979285039662884
184.81735450000002,0.7466085745407957,0.3117442276442602,26.59551529245923,3.1403755572511036,55.692235839167715
184.84696050000002,0.7465656774255701,0.3116913526473052,26.588961734898653,3.104916010616235,55.06355477997524
184.876471,0.7465225971088594,0.311638644423373,26.582429849949918,3.1785558025836576,56.369677145431446
184.9059395,0.7464799422625553,0.31158600742813625,26.57590779023926,3.113497429404505,55.216075495704715
184.9353815,0.7464369487025031,0.3115334139732857,26.569392121516806,3.1905062653654213,56.58195410329691
184.964892,0.7463943359438866,0.31148069433303416,26.562861819008635,3.0792757304610285,54.60950482255204
184.9946845,0.7463511077738418,0.3114274670120442,26.556269645309815,3.0496918531062978,54.08501455654144
185.0245345,0.7463076389760225,0.31137413301983713,26.549665282590244,3.077312226939465,54.57501808349621
185.0543655,0.7462642073874451,0.31132082901810226,26.543065655671366,3.0944661279871117,54.879404850617085
185.0837805,0.7462207576938403,0.3112682644634302,26.53655858089463,3.3366904622330202,59.17535811985609
185.1132225,0.7461785024544552,0.31121564777734134,26.53004604731451,3.0950468904906425,54.89003713262442
185.14282450000002,0.7461349382521208,0.3111627412191457,26.523498638501074,3.2526767120750906,57.685746308436
185.1722125,0.746092181397113,0.31111021322074656,26.516999072963152,3.2096492062988076,56.9228320511889
185.201521,0.7460492055877358,0.3110578234208326,26.51051759465405,3.2861715906494178,58.280125380765256
185.2307535,0.746006645580532,0.3110055655791447,26.504053423700956,3.242563997744737,57.50691955963003
185.2602335,0.7459638563757135,0.31095286133745814,26.497535027221996,3.142732019877027,55.73656722943324
185.2901405,0.7459205381755802,0.3108993896341831,26.490922731000772,3.0002832248857114,53.21039203920117
185.31998299999998,0.7458764652208953,0.310846029148328,26.484325210797056,3.1662975183228155,56.15484859207261
185.349654,0.7458332991650941,0.3107929712363587,26.477766113924133,3.083130753408454,54.68003840255728
185.379115,0.7457896909041181,0.3107402848073688,26.4712539395551,3.27861862601485,58.147237630391714
185.40819399999998,0.7457471033770653,0.3106882775629513,26.46482669042585,3.2967280439797415,58.468588521064746
185.437521,0.7457045774042104,0.3106358227724857,26.458345114214985,3.1413135320136494,55.71242787873606
185.467249,0.7456612283846766,0.31058264662850366,26.45177541070554,3.069765987486242,54.44367090418865
185.496714,0.7456174919499591,0.31052993682119756,26.445264321358533,3.285376983894093,58.26780517522295
185.5260035,0.7455748775206469,0.31047753689850155,26.438792497862128,3.1624696947785593,56.08815221207793
185.55546049999998,0.7455316193208099,0.310424833208201,26.43228414869644,3.180678215702731,56.411261707039536
185.584883,0.7454884779947679,0.31037218712048115,26.42578390599099,3.1615780752751,56.07267917868797
185.6142715,0.7454452848956508,0.3103195977400052,26.419291655738213,3.1714097919643875,56.247221598145735
185.6436105,0.7454022073527042,0.3102670928058969,26.41281081816901,3.1583481719230675,56.01573386590426
185.67284999999998,0.745359123584032,0.3102147618144653,26.406352432569882,3.19728227410674,56.706431076209796
185.7025855,0.7453163025179258,0.3101615388782404,26.3997849734064,2.867662365116678,50.86050681195774
185.73233249999998,0.7452717244008643,0.3101082910691678,26.393215459078228,3.1697708844972685,56.21883879692086
185.7617095,0.7452288331991948,0.31005570134293814,26.386728131844478,3.04834112633194,54.06533274868819
185.7912165,0.7451853061289488,0.310002874652768,26.380212568963238,3.0904217153265576,54.81184026318574
185.820498,0.7451419961960902,0.30995044745959455,26.373747265737382,3.170435592434483,56.23113935369908
185.8499245,0.7450990965978381,0.30989775640239176,26.367250412660297,3.009163120330876,53.370957861857754
185.879412,0.7450553231157423,0.30984495183166505,26.360740558501764,3.1314217866747525,55.53952443375318
185.908663,0.7450122075451137,0.309792566517064,26.35428337533138,3.1312678115326897,55.53696110812941
185.937964,0.7449690945359321,0.3097400873944499,26.347815611815502,3.095920275347656,54.910194242700705
185.9675395,0.7449257952679192,0.30968711229021484,26.341287718662528,2.9713218410686495,52.700438926040654
185.997008,0.7448818357701856,0.3096343244882404,26.334783902484464,3.1412145279720978,55.71388650525538
186.02671650000002,0.7448388156587027,0.3095811023521611,26.328227580232056,2.8339699699051804,50.26462343605658
186.0565205,0.7447941099090075,0.30952770466007573,26.32165064734615,3.0817656978475982,54.659813084740136
186.08570300000002,0.7447507707659852,0.3094754161120455,26.315211312174263,3.165847562331257,56.1513022881349
186.115183,0.7447078641916899,0.3094225901219106,26.308706781224107,2.916259248182307,51.72461709406315
186.14486499999998,0.7446636086030513,0.30936939769137684,26.302158135438646,3.0468343301509417,54.04074487259018
186.1742805,0.7446200677719649,0.3093166784079033,26.295668735164707,3.063356109697966,54.33395151294452
186.203677,0.7445765631945283,0.3092639887445287,26.289183970682757,3.0797555549762086,54.6249900223615
186.2331455,0.7445330416064941,0.3092111655676969,26.28268376708146,3.0613948205679904,54.299494695375145
186.26251100000002,0.7444892866907946,0.30915852256221404,26.276206723585997,3.1788941481639847,56.383733407389364
186.2920215,0.7444460332731775,0.30910561511822343,26.26969813883168,3.014664525421146,53.470971687848866
186.321585,0.7444018111192459,0.3090526081159438,26.263178306154206,3.1618547984719636,56.08185032141444
186.3509505,0.7443583634337415,0.3089999516136195,26.256702575162752,3.121923828797538,55.37376228447389
186.380717,0.7443146909883495,0.3089465714570604,26.250138856006764,2.93859566836974,52.12221927986906
186.410445,0.7442700155369449,0.3088932557002823,26.243584067674135,3.1338451889608443,55.58555386857006
186.4400505,0.7442264196480521,0.30884015501553597,26.237056726054877,2.9991615857232135,53.196810244359305
186.46953050000002,0.7441820695892929,0.30878727482641993,26.23055748526694,3.2043951315523564,56.83725740435425
