T(K),X,m(mol/kg),cp(J/gK),cpm(J/molK)
181.5049275,0.3176397845362456,27.332606321553776,3.3210028218282934,58.87552067999924
181.53319399999998,0.3175896140723032,27.32628003816324,3.2448659126539825,57.525913956502094
181.56135749999999,0.317539624570417,27.319977498438647,3.3807626620240945,59.93530320940692
181.589514,0.317489645630016,27.313677213225805,3.256242496982627,57.7279339256489
181.6180405,0.3174390080103163,27.307294836658627,3.1809872604535663,56.39394440126246
181.646109,0.3173891814957274,27.30101561624395,3.5342637521450224,62.6571657169076
181.674216,0.3173392847401825,27.29472846251031,3.1676914593117154,56.1585533565519
181.70278050000002,0.31728857385223325,27.288339667064157,3.2734693591970188,58.034010992728604
181.73099000000002,0.31723849124802006,27.28203095721751,3.3657971487844103,59.671025181324616
181.7590965,0.3171885895651363,27.275745957772596,3.3167716388320283,58.802038405302994
181.787375,0.31713838053381177,27.269423175600757,3.2489240836090083,57.59935635843635
181.8158325,0.31708785167451065,27.263061056382732,3.2004407607929486,56.73997298589309
181.8443395,0.31703723288769114,27.256688558251305,3.2142227100837473,56.984476650339346
181.872515,0.3169872007165737,27.250390838507563,3.3964419835389346,60.215188699392094
181.90061400000002,0.3169373023790879,27.244110883736187,3.2776700664852347,58.109660080468785
181.9288545,0.3168871507290146,27.237799972754846,3.3469519011731195,59.33812601798363
181.95725499999998,0.31683671286594495,27.231453980242097,3.2268052766021595,57.20821224633
181.9857695,0.3167860704393352,27.225083192634145,3.3195388555704093,58.85246285811459
182.0139525,0.31673601467779416,27.218787135186375,3.4467869727498046,61.10863476225717
182.0421585,0.3166859159750547,27.21248660017223,3.3250575776877236,58.950645157699526
182.07054349999999,0.31663549721184947,27.206146746252614,3.3529667051227108,59.44562468592809
182.09886749999998,0.31658518466016816,27.199821180277038,3.3641196434618235,59.64353099738309
182.12728700000002,0.31653470030761527,27.19347495064198,3.2972738793035647,58.458571594210966
182.155592,0.31648441718603987,27.187154948987402,3.434279264281386,60.88776650081207
182.18388950000002,0.31643414521270147,27.180837278025898,3.314223839707554,58.7594241534979
182.2123205,0.31638363386523294,27.174490460783638,3.372818705165135,59.79845400118124
182.240744,0.3163331336196424,27.168145976041366,3.3329019626578926,59.090921329958476
182.2690035,0.31628292253680684,27.1618387488009,3.4725195448614654,61.566459299121405
182.296946,0.3162332725077582,27.15560290875798,3.508487266196239,62.20433140051407
182.3252435,0.3161829894615291,27.14928848727805,3.2555612261865003,57.72020272606598
182.3537965,0.3161322501173674,27.14291770626842,3.3474222189310208,59.34904634277844
182.3820745,0.31608199717448826,27.13660892905186,3.399484597157709,60.272275208532996
182.4102995,0.31603183614159125,27.13031261475933,3.3608533619078536,59.587522333718255
182.4385015,0.31598171369859956,27.12402206673815,3.3922811853576005,60.1449075664008
182.466856,0.3159313179057967,27.117698141711283,3.2552909513975443,57.71624795269011
182.49507749999998,0.3158811561796562,27.111404513807333,3.4590140471193567,61.32843193902008
182.5232605,0.31583106056051086,27.105120101177825,3.2732337122686657,58.03470808856473
182.551615,0.3157806577405499,27.098798079431457,3.3607312100367666,59.58621914127565
182.58000800000002,0.31573018409977816,27.092468107951333,3.2528996408348543,57.67451859207096
182.6084125,0.3156796876152707,27.08613620600328,3.3497515821417836,59.39189445102966
182.63667149999998,0.3156294473990235,27.079837365583693,3.332337454462494,59.08330888114273
182.6651215,0.3155788651853303,27.07349658161779,3.244315184068943,57.522816197638605
182.693343,0.31552868680838175,27.067207346981316,3.4728058371930906,61.57421156926478
182.7215145,0.31547859491379104,27.060929871505138,3.2746947285806676,58.06179140957683
182.7499605,0.31542801246351865,27.054591852207253,3.3163073946433235,58.79977385755198
182.77817399999998,0.3153778409817141,27.04830625273967,3.4236234396768817,60.7027160407406
182.8063225,0.31532778263181,27.04203574477882,3.3736001011973245,59.81594744899921
182.83456999999999,0.3152775457435847,27.03574379415115,3.3866719670984065,60.047893294161376
182.8626655,0.31522757670249707,27.02948630602782,3.482246455846191,61.742668843906564
182.8909365,0.3151772930191094,27.023190337914425,3.299263521460362,58.49842276035386
182.9195315,0.3151264304859086,27.016822833143195,3.3056358892459237,58.61158143052047
182.947943,0.3150758917709749,27.010496804026122,3.418775498910353,60.617814200132855
182.976057,0.31502587971033363,27.00423761620221,3.492463500773511,61.92454398284685
183.004183,0.3149758437588323,26.997976352945138,3.4268839600937135,60.761934480449554
183.03256449999998,0.3149253506816021,26.991658814310327,3.3590736817848654,59.55976661275739
183.0608315,0.3148750587067407,26.98536736262367,3.5016803190002013,62.08850616567622
183.08861,0.31482563331563784,26.979185219137612,3.640949876345306,64.55808701415059
183.116755,0.3147755532377122,26.972922096854457,3.2690996173538944,57.96493601995863
183.1453845,0.3147246083764721,26.96655176217803,3.327342828598902,58.997829060088314
183.17370449999999,0.31467421157948344,26.960250891362175,3.4214977481774693,60.667486317051534
183.201544,0.3146246672472359,26.95405750339007,3.5886548221572334,63.63157451477525
183.229193,0.31457545936450954,26.947907060210618,3.5145940617903824,62.31855644731794
183.257521,0.3145250403700031,26.941606157308257,3.1796725277294224,56.38010368990903
183.2859975,0.314474354331452,26.9352728159069,3.412642354615362,60.51116588904588
183.314074,0.3144243775603779,26.929029016077774,3.3889464989615097,60.09117659375219
183.342524,0.3143737332002902,26.922702740225073,3.178120123025478,56.35306870808943
183.3708135,0.3143233717896504,26.916412735907166,3.458715324041618,61.328640958778074
183.39871449999998,0.31427369928415916,26.91020967901915,3.379962237437846,59.93239235967714
183.42674499999998,0.31422379350622565,26.903978396228858,3.3751909241547,59.84796109613159
183.454764,0.31417390546317997,26.897750234218563,3.3879996200937263,60.07525408989812
183.482859,0.3141238793378017,26.89150574341705,3.331196523096657,59.06820451491976
183.51112949999998,0.3140735379090741,26.88522281448119,3.2848185507201246,58.24600724290345
183.5394005,0.31402319276059043,26.878940343562615,3.329049361439063,59.03047391098688
183.56752649999999,0.3139731030076966,26.872690658044668,3.360774756967667,59.5931984488696
183.595263,0.31392370414872267,26.866528068955297,3.5489660470910662,62.9303822079554
183.623427,0.31387354108319027,26.860271051908306,3.1040613134571617,55.041476000172274
183.6517895,0.313823021576081,26.853970499253602,3.4099948608453325,60.46649139246002
183.679934,0.3137728874899258,26.847718931561655,3.212473157964764,56.96417433121088
183.708052,0.3137227977278849,26.84147380312271,3.418871998485229,60.62425212348788
183.735884,0.31367321460127573,26.835292739136378,3.379220114804996,59.92130668806507
183.763964,0.3136231867736866,26.829057143520938,3.2887424168279913,58.317098141145074
183.7920325,0.3135731765251701,26.822824647446108,3.402577673171899,60.33583746433968
183.8202805,0.3135228435073065,26.81655284333428,3.2021995226247637,56.78281845537341
183.848788,0.3134720450912185,26.810223980169486,3.268123044042162,57.951973133588595
183.87737900000002,0.3134210948283859,26.803877139471883,3.1687135427827147,56.18935968901377
183.905516,0.31337095060999315,26.797631626880673,3.541418649104038,62.7985517054847
183.9334435,0.3133211767938914,26.791433150331713,3.2819208116308385,58.197147900024255
183.96153900000002,0.3132711005736597,26.785197921257264,3.4291612084710947,60.808285553557816
183.98952350000002,0.31322121920472074,26.77898785802541,3.3352013010555766,59.142292733058056
184.01780150000002,0.31317081163756083,26.772713201221023,3.249751468240693,57.62719954567883
184.046194,0.3131201968728241,26.76641367941315,3.2609386490726116,57.825748258801255
184.0743885,0.3130699319983571,26.76015862373075,3.3596072893513553,59.575597381425254
184.10241150000002,0.31301996981726854,26.753942142869423,3.359971763541188,59.582232098777595
184.130377,0.3129701071032884,26.747738939528073,3.3933235404278386,60.17383058621681
184.1583885,0.31292015930380385,26.741526053732052,3.334432724143912,59.12968949861915
184.18701800000002,0.31286910635194526,26.735176634141766,3.0482197085704716,54.05441645437535
184.215563,0.31281820086286316,26.72884649374697,3.3847415622551833,60.02217167809354
184.243708,0.3127680055488447,26.72260558247348,3.2709300677702426,58.00410173229222
184.2717385,0.3127180113068282,26.716390577128028,3.4579692815588214,61.32108471899974
184.299891,0.3126677963089352,26.7101490387577,3.2096748554271626,56.91817861532752
184.328345,0.312617040299726,26.70384118139272,3.2900568719218004,58.34378894876246
184.356543,0.3125667377218311,26.69759059460795,3.368855900534017,59.74133427036432
184.3845925,0.31251669686110045,26.691373436312148,3.3957435250070795,60.21831741963899
184.4131495,0.3124657473253387,26.685044312553522,3.1058660142754024,55.07794484422176
184.4415725,0.31241503355872813,26.678745408302888,3.497287207901666,62.01940261519691
184.46953000000002,0.31236514713105823,26.672550170188426,3.3853756567087903,60.03498337097149
184.49792300000001,0.3123144803197833,26.666258938732465,3.260028843711561,57.8122987337363
184.52633500000002,0.3122637762689774,26.65996401128857,3.3882128869994337,60.085648703436156
184.554663,0.3122132187902423,26.653688204934728,3.3169371560512344,58.82183556729888
184.583201,0.3121622831405602,26.647366388370752,3.278899018647412,58.1474462404258
184.61152099999998,0.3121117332175182,26.64109337140991,3.4591944592055106,61.34495407206144
184.63930349999998,0.3120621394348253,26.634939903040685,3.605874968680363,63.94635197348369
184.667239,0.31201226925462094,26.62875303456174,3.368418374707104,59.73548383865365
184.69579549999997,0.31196128705687615,26.62242913685792,3.2285504722035165,57.25523661977707
184.7240775,0.3119107915107561,26.61616652778143,3.508460362611534,62.219350264525865
184.752539,0.31185997203433513,26.60986467185786,3.107844727096585,55.11495808999083
184.780638,0.3118097964163028,26.6036435705353,3.7113279827973034,65.81740580547705
184.8083555,0.3117602987057955,26.59750740941135,3.3122177722731556,58.73967592478534
184.836737,0.31170961179203727,26.59122473905523,3.3158620299006594,58.804475811053436
184.86532449999999,0.3116585534508418,26.584896965527836,3.2019496549744155,56.78448718668071
184.89362549999998,0.3116080033068245,26.578633098704316,3.4867208072342843,61.834897795635946
184.921923,0.31155745591661327,26.572370492912146,3.203836556088905,56.81828110734247
184.9504495,0.3115064959134142,26.566057696991166,3.352474075822972,59.45446042356317
184.978804,0.31145583962306245,26.55978345034587,3.3027141597071425,58.572164009180646
185.0069715,0.3114055138973423,26.553551061275773,3.4629870453600646,61.41471029891752
185.0349675,0.3113554910967985,26.54735708947805,3.410320699101869,60.48086771942153
185.063055,0.31130530129907225,26.5411433438924,3.4275854600388014,60.787228112191606
185.09141,0.31125462992736397,26.53487089574584,3.2719021579886696,58.026399578036056
185.12006250000002,0.31120342324943157,26.52853312128404,3.267407536547925,57.94685950591824
185.148192,0.31115314766181984,26.522311503204126,3.591631629269491,63.69709745497749
185.17618800000002,0.3111031071269835,26.516119874718015,3.355277956530394,59.505568840834
185.204142,0.3110531381165604,26.509937993619484,3.6292677511698312,64.36493982156927
185.2320505,0.3110032468906507,26.50376663015814,3.390257777590609,60.126278921010304
185.260691,0.31095204338918114,26.497433872232293,3.1985201572237885,56.725976332563505
185.28940799999998,0.31090069934401143,26.491084677100805,3.335868615201767,59.16203575042708
185.317622,0.3108502509318588,26.484847157245994,3.48388361104212,61.78727929784667
185.3454805,0.3108004345678424,26.478688680867904,3.545478759819208,62.87986040376454
185.373648,0.31075006199386435,26.472462349020255,3.3010803213846516,58.54556923343936
185.402331,0.3106987637457532,26.46612253392347,3.232099066641172,57.32233708573259
185.430449,0.3106484722452505,26.4599080560693,3.608731957151843,64.0022303807297
185.45861250000002,0.3105980956494958,26.453683972055565,3.1793924553864787,56.387895087960764
185.48712,0.3105470999348459,26.447384321611462,3.3728968951060074,59.81995545380375
185.5151545,0.31049694660627536,26.44118964247776,3.4107836143711543,60.492069509550646
185.5432535,0.3104466741522085,26.43498115390944,3.2930426536210895,58.40403982938823
185.571608,0.31039594077351984,26.42871666030328,3.221044233251052,57.12727265958136
185.5998975,0.31034531987405584,26.42246697410259,3.2863970219749863,58.286516012308674
185.627882,0.3102952409685247,26.41628510550425,3.3640151632977755,59.66329937813819
185.65615300000002,0.31024464554455183,26.41004038813473,3.1082425431958676,55.127143297513506
185.6847865,0.31019339744212726,26.403716048089706,3.1498274517217113,55.864849528042065
185.7130455,0.3101428157292979,26.397474866133283,3.323159631949296,58.939213859222484
185.7412395,0.3100923464989186,26.391248475288396,3.1914857288185963,56.6040237812426
185.7695675,0.3100416334994826,26.384992928154887,3.247357849386577,57.59513705954326
185.797617,0.3099914152081665,26.37879931033688,3.3421780224096445,59.27703909432048
185.8258995,0.3099407758594342,26.37255467470133,3.0918605723205586,54.83755607346533
185.8541325,0.3098902212134967,26.366321398413334,3.3460603333266734,59.34624194057531
185.8822505,0.309839868577153,26.360113937178845,3.143637894931433,55.75620810652007
185.910418,0.30978942337056004,26.35389597210532,3.3162961877965533,58.81868202936453
185.9384675,0.30973918557084207,26.347704475606225,3.2192162680043706,57.097012858135614
185.9670245,0.3096880347863705,26.34140138530543,3.041082831182848,53.93774221331581
185.9955735,0.30963689425169255,26.33510049178617,3.2348906131668,57.375355994349725
186.023928,0.3095860980786114,26.32884295020816,3.164540286669199,56.127757798204776
186.0523475,0.3095351813954065,26.32257148707023,3.2157909722344518,57.036931091999946
186.080607,0.30948454732143027,26.316335750412183,3.271154917912651,58.01906389570709
186.10885100000002,0.3094339369725316,26.310103849365714,3.24391420572255,57.53607488745366
186.13719,0.3093831523135367,26.30385140276695,3.240987574992341,57.48433452969578
186.165373,0.3093326431466649,26.2976337859015,3.34914754539433,59.402905330547156
186.193701,0.30928187001304464,26.291384591525688,3.1580669368904144,56.013925174343925
186.22220049999999,0.3092307853334491,26.285097978976808,3.244159916135065,57.541106383603584
186.250433,0.3091801751162021,26.27887067184003,3.303988390758989,58.60244460739575
186.27849400000002,0.30912986824849864,26.272681594371452,3.3321439990332515,59.10200852820946
186.3066315,0.3090794201314215,26.26647604455758,3.2474126673223442,57.599302132847065
186.335036,0.30902848912607556,26.260212014548536,3.172191645737016,56.26527326316602
186.3631615,0.3089780542332325,26.254009911585154,3.411056153266464,60.5021971060223
186.3912335,0.3089277111446245,26.247820000811185,3.2118731744077005,56.96943665619476
186.4198555,0.3088763774460605,26.241509218622983,3.105769642715238,55.087626614079774
186.4480465,0.3088258125259597,26.235293863776874,3.463966497913602,61.44121130780528
186.475966,0.30877573044024403,26.229138754477216,3.2545496893233072,57.72690128796579
186.5042405,0.3087250073394357,26.22290577321147,3.2545303345775873,57.72672666578224
186.53260649999999,0.30867411581639653,26.216653014999103,3.2007636025820396,56.77321404505451
186.56098,0.30862320653990116,26.21039899651809,3.2468374484643827,57.5906130285977
186.5892775,0.3085724293323167,26.20416211959636,3.2392191813067837,57.45565246902368
186.617613,0.3085215796265686,26.197917255795627,3.2206800101535875,57.12698124870074
186.6459145,0.30847078661653854,26.19168027167127,3.2598302899409624,57.82158058385141
186.67400600000002,0.3084203662138433,26.185489946904788,3.34846720503898,59.39395964399493
186.7021315,0.30836988049888897,26.17929250779171,3.254072195441881,57.71978129461188
186.7304595,0.3083190269440117,26.173050828626277,3.2528913409136644,57.69900466947402
186.75872249999998,0.3082682857119756,26.166823850468045,3.312612191245428,58.75849050715661
186.7868215,0.30821783457953145,26.160633379073634,3.357692590861531,59.55829122864401
186.81537450000002,0.3081665638604654,26.154343267478325,3.0507143117926603,54.11331238754554
186.8437675,0.30811557599150313,26.148088781678425,3.4282535504367653,60.81025007466914
186.87180949999998,0.308065214074886,26.141911983912294,3.2189742913029677,57.0982270245919
186.90040449999998,0.3080138545144919,26.13561375291731,3.092653441730672,54.85770769927212
186.92852249999999,0.3079633472650986,26.129420952660414,3.488348321659725,61.876751777016445
186.95685,0.30791245924377686,26.12318237928016,2.9706635000841235,52.69414917659709
186.982664,0.3078660826126127,26.117497674887733,5.3503640430160555,94.90594751280277
187.01061049999998,0.30781587058748333,26.111343698590993,1.974678547059999,35.0273886230362
187.041235,0.30776084190527825,26.104600419047316,3.3817736794741533,59.98701741626185
187.069582,0.3077099009138412,26.09835900547274,3.0430089014417714,53.978054393913
187.0980435,0.3076587495876017,26.092092745325132,3.3093200992104808,58.70215712333391
187.12618099999997,0.30760817604069196,26.085898175888662,3.2216299045155363,57.14683684799793
187.1546695,0.3075569670271832,26.079626692448688,3.109196272833071,55.152597140168794
187.18285250000002,0.3075063026030695,26.0734228167665,3.4008905674409897,60.327003614757125
187.21124500000002,0.30745525696554743,26.06717317935803,3.001559176986932,53.243584338024206
187.239565,0.30740433706343184,26.060939853850734,3.4554685714200333,61.29550047333607
187.2676945,0.3073537551137698,26.054748805947593,3.114453433408902,55.246498175477136
187.2964575,0.3073020292925578,26.048418687361806,3.0903394780789375,54.81891018352348
187.324812,0.3072510334072119,26.04217882248614,3.3428689055278626,59.298653073563386
187.3531135,0.30720012818766274,26.035950967656706,3.11985744110762,55.34284823778493
187.381308,0.3071494107885249,26.029747001272383,3.4084791224188775,60.462856857747404
187.4090445,0.30709951272841934,26.023644146216437,3.387629754820884,60.09318359087586
187.4374985,0.3070483192015459,26.01738376063961,3.014212225498915,53.46928557514391
187.4657805,0.30699743041960414,26.01116155859148,3.5093829664771548,62.25333056429511
187.4937805,0.30694704440924336,26.00500173098561,3.1904783660048484,56.59641102879312
187.52228,0.3068957547931996,25.99873235494043,3.2352293055009542,57.39042472326266
187.5509285,0.30684419217805875,25.992430544122318,3.117223375384267,55.29725652151035
187.579665,0.30679246627964407,25.98610971931581,3.1923995239563,56.630994992885746
187.607943,0.30674156088240984,25.9798900793885,3.394759396119199,60.220897989522356
187.636149,0.3066907803393623,25.97368660417285,3.260582780906493,57.84085835294331
187.664336,0.30664002924197514,25.967487633985442,3.438292951918892,60.99351261320375
187.6925645,0.30658919864017964,25.961279862312573,3.265290591581512,57.924711124299975
187.72074750000002,0.30653844518125783,25.95508241982762,3.491821913236905,61.9434507421588
187.749068,0.30648743927218075,25.948855064840828,3.2127086922915002,56.99226714401913
187.777804,0.30643568007208866,25.94253667624235,3.27432573926281,58.0855039999589
187.806376,0.306384211295703,25.93625467553176,3.32623573739584,59.00654589381094
187.834521,0.306333506843592,25.930066875674644,3.5381782584829407,62.76653370731007
187.86263150000002,0.30628285971581654,25.92388697449665,3.354485584543668,59.50803813559835
