T(K),Fc,X,m(mol/kg),cp(J/gK),cpm(J/molK)
181.502459,0.694651028017796,0.3176441658109727,27.333158825940632,3.1155694816899704,55.23353606419015
181.53052,0.6946026645123031,0.3175943602584435,27.326878472332055,3.2608286537425784,57.808890196859934
181.5589315,0.6945552501675147,0.31754393073237613,27.320520371223118,2.955606933957952,52.397985749898744
181.5874195,0.6945056555714447,0.3174933635177242,27.31414585391877,3.22919266538447,57.24837171902409
181.6154805,0.6944579461421758,0.31744355236597827,27.307867569552194,3.167151799891298,56.14864855102021
181.643633,0.6944097756808818,0.31739357690627973,27.301569496341475,3.190063311285027,56.5549967188527
181.6722165,0.6943617198384979,0.3173428344015995,27.295175701045537,2.9654931370065705,52.57386100591064
181.700678,0.6943120411337279,0.31729230651248624,27.288809892745974,3.2556828259104327,57.718668338623935
181.72905200000002,0.6942643682460916,0.31724193199831696,27.28246434547178,3.01152045584792,53.39016862129057
181.7576545,0.694214953509515,0.31719114981131863,27.276068392393064,3.1464200979599757,55.78191937372166
181.78576099999998,0.6941664641738697,0.3171412462759073,27.26978403113436,3.2591831600472347,57.781227395760915
181.813761,0.694118712830941,0.31709152987804806,27.26352414944103,3.2046386225612995,56.81438399179534
181.842192,0.6940705540721176,0.317041046192382,27.25716858974088,3.0507397588398897,54.08609982158076
181.8710425,0.6940212916153691,0.3169898155335898,27.250719951579164,3.000646832653638,53.198167050771254
181.8994545,0.6939716597913161,0.3169393614645696,27.244370011769423,3.2651332018305514,57.88738772066219
181.92758800000001,0.6939238655912489,0.31688939992095344,27.238082983477597,3.135621454127673,55.591440320716956
181.956076,0.6938751537650578,0.3168388067523271,27.231717410256444,3.104849720553481,55.046048690605225
181.9844305,0.6938261086042735,0.31678844858242444,27.2253823405077,3.2344167714388163,57.343316376347765
182.01265899999999,0.6937778200348901,0.31673831210579256,27.219076087490052,3.1939551447844523,56.62613155070342
182.0409565,0.6937291724235142,0.3166880509764536,27.212755084306988,3.2106513704356385,56.92230644197023
182.0689415,0.6936806121175244,0.31663834281611913,27.20650453883432,3.348167671387147,59.3605316249473
182.0972125,0.693633003781011,0.3165881245325482,27.20019077130388,3.062403145458266,54.29429548973503
182.1258605,0.6935834253661187,0.31653723439168746,27.19379348005463,3.1510330586591477,55.865806570978066
182.154604,0.693534485810426,0.3164861723797997,27.187375540699946,3.0076330168032435,53.323572205435674
182.1829015,0.6934845425268115,0.31643590048263515,27.181057846865425,3.368513344698319,59.72194213118574
182.210894,0.693437102505072,0.31638616827979155,27.174808890956776,3.151012497216232,55.86592841795894
182.239306,0.6933881735165558,0.31633568857862243,27.168466940054078,3.1595774539034474,56.01794393134306
182.2679925,0.693339254307814,0.31628471890570253,27.162064382344216,3.031362991900962,53.74491475973403
182.29650750000002,0.6932893437005436,0.3162340516795947,27.155700762550993,3.2532823104906616,57.67962843803237
182.32469400000002,0.693240979822181,0.3161839659131961,27.14941109883925,3.1834119667084257,56.441013076531696
182.3530105,0.6931921657012927,0.3161336468885233,27.143093070795743,3.174481416810332,56.28284011767485
182.3816665,0.6931433183157933,0.3160827222490607,27.13669994865026,3.005050118755107,53.27901775343094
182.410223,0.693093296921304,0.3160319720992933,27.13032967919687,3.2082346152871923,56.881610027699296
182.4384445,0.6930447570907443,0.31598181500504885,27.12403478013445,3.152129396423932,55.887032860570834
182.4668185,0.6929958560202399,0.3159313845578591,27.11770650494183,3.12001853277187,55.31787027682629
182.49498599999998,0.6929467539795352,0.31588131881821035,27.111424918044037,3.2369281154651954,57.390840585176875
182.523539,0.6928985308992974,0.3158305655118,27.105058002727397,2.910116516520303,51.59661124267632
182.55215700000002,0.692848060194884,0.3157796942608878,27.098677239325642,3.1803493175938065,56.38802690927855
182.5801605,0.6927995767092514,0.3157299129972614,27.092434111118312,3.192375151613608,56.60140897060712
182.60827849999998,0.6927511950249523,0.31567992584124327,27.086166075661176,3.1144738207563636,55.220362870927616
182.636992,0.6927022800549245,0.3156288775848695,27.07976593074083,2.8983366738617597,51.38835094188063
182.6655945,0.6926518010113368,0.3155780242020205,27.073391167235016,3.164433871006394,56.10649595557976
182.6935525,0.6926032341438731,0.3155283143042482,27.067160661675434,3.2088704971144506,56.8945355404593
182.722041,0.6925549510860952,0.31547765871823985,27.06081255698626,2.9101871961813064,51.5989138129996
182.75090649999999,0.6925045098820471,0.3154263302511334,27.054381085814814,3.021835780434177,53.5786513749338
182.778994,0.6924548836391031,0.3153763827559303,27.048123576612596,3.294413943517332,58.4117659150313
182.8066735,0.6924071036286057,0.31532715840961717,27.041957558012957,3.2371241289476944,57.39614890333125
182.835272,0.6923588570432212,0.3152762972369015,27.035587435904905,2.8645438805244425,50.79022690163054
182.86414150000002,0.6923078519953059,0.3152249515051736,27.029157584903167,3.1150315767984487,55.231700174119084
182.892317,0.6922586281979247,0.31517483755403686,27.022882915343057,3.2048434253666476,56.82429150855268
182.9204885,0.6922099959233651,0.315124728204783,27.01660974011416,3.1225053861463268,55.36453583908251
182.9489575,0.6921607497704415,0.3150740871186053,27.010270929446676,3.0671577469683955,54.383336321283814
182.97738850000002,0.692111047254664,0.3150235110389058,27.0039411911916,3.1571648723385444,55.979402974986805
183.005686,0.6920618965554796,0.3149731698607717,26.997641779684212,3.1527224336962005,55.90079667146413
183.034014,0.6920126215145926,0.31492277182893813,26.991336181186853,3.1655038306310863,56.127586127594824
183.062262,0.6919633281557279,0.3148725135258233,26.985048988809485,3.215535460750342,57.014862687599596
183.09060499999998,0.6919142950254311,0.3148220835789378,26.978741251281573,3.134676670711073,55.581311893583454
183.11883749999998,0.6918646341386263,0.3147718476174402,26.972458700387588,3.2806354114565144,58.16949147971665
183.147219,0.691815949504112,0.31472134387660317,26.96614358928024,3.065957839438003,54.36316600461082
183.175631,0.6917657322771253,0.31467078318337294,26.95982228903634,3.2639951148108253,57.8747766805726
183.2038255,0.6917169048586999,0.3146206068798917,26.95354996877798,3.1696574051851014,56.20221184601095
183.2323135,0.6916674087684799,0.3145699055410582,26.94721294892968,3.114328222318231,55.221313705371195
183.2607175,0.6916175207026366,0.3145193509763662,26.940895207338876,3.2050671489739164,56.830404974523596
183.2890415,0.6915682806095336,0.3144689360762238,26.934595847401855,3.1482443332121925,55.823017706637614
183.31750699999998,0.691518634462614,0.31441826656211175,26.928265606846608,3.130127676020998,55.50194470052659
183.345759,0.6914688630579747,0.3143679743422617,26.921983427603706,3.2489919493398336,57.609756782686524
183.3740295,0.6914199256805487,0.31431764644131743,26.915697713838345,3.1172840902737757,55.274528807062346
183.4026395,0.6913700522913591,0.3142667113401183,26.90933710308678,3.077466899486089,54.568665271524544
183.431166,0.6913198906735001,0.3142159220643815,26.902995643334453,3.152863426269002,55.905736151548766
183.4592535,0.6912702715459179,0.31416591161870494,26.896752344672308,3.2919607490707494,58.37234112475519
183.48749400000003,0.6912216085734577,0.31411562596214987,26.890475606688245,3.079309678390345,54.60181622242627
183.5158105,0.6911714165718945,0.31406520215498174,26.88418254860568,3.257186236858054,57.75606212180004
183.54420299999998,0.6911224507467821,0.31401464016069736,26.877873173270817,3.041015330708887,53.92310089872714
183.5723595,0.6910719545039754,0.3139644956063036,26.871616806684802,3.366860757110895,59.70114490727003
183.60054250000002,0.6910237789215417,0.3139143010176407,26.865355113390574,3.0153388965843897,53.46811706576133
183.6290955,0.6909731517549506,0.31386344453909143,26.859011784763762,3.167143926946706,56.16009487681161
183.6574885,0.6909236417632408,0.31381287012127307,26.85270457003073,3.0764673848457673,54.55236886096551
183.6858735,0.6908735374664474,0.31376230702956037,26.84639969714133,3.1492796989078617,55.84365015388208
183.7142545,0.6908240179051062,0.3137117481267214,26.840096275498297,3.0591057698879753,54.24482625612823
183.7426855,0.6907738895244403,0.31366109719433494,26.833782311304486,3.1141324009135944,55.22073336988615
183.770964,0.6907241565588345,0.3136107149963242,26.82750277103099,3.1368177998775177,55.62315917972395
183.79916250000002,0.6906745259477562,0.31356047238632384,26.821241546702808,3.1684166583755347,56.18364393931917
183.8276315,0.690625036486009,0.31350974481816213,26.814920816783154,3.021656618965589,53.58139226557921
183.856131,0.6905744166607679,0.31345895987507305,26.80859387350808,3.16845704573381,56.18468875400954
183.884333,0.690524781920539,0.31340870206842186,26.80233352394487,3.1791477039936695,56.37442419335254
183.9126875,0.690475170546285,0.3133581694782658,26.79603987001656,3.1005695840432135,54.98119314157909
183.941111,0.6904249609644514,0.3133075108667976,26.7897314503307,3.147862970825682,55.819991297142444
183.9692445,0.6903750685057819,0.31325736609420024,26.78348793460129,3.246009423577421,57.560555526912495
183.997702,0.6903258424571752,0.3132066407559411,26.77717306036493,2.9948999053551626,53.10785758129422
184.0262475,0.690274769650215,0.31315575543996044,26.77083920741842,3.2090240284572022,56.90503728637961
184.05461,0.6902251952780694,0.31310519323365393,26.764546502441334,3.092104911749497,54.831891685430826
184.0827735,0.6901747286944921,0.3130549827094533,26.758298482660358,3.3180862273626204,58.83935901209796
184.1109945,0.690125818638968,0.3130046665830777,26.752038238301854,3.0669025472655944,54.38529648118502
184.139475,0.6900751104216218,0.312953884636322,26.745720967103402,3.185493296011148,56.48842818022837
184.16798599999998,0.6900252461445214,0.3129030451239384,26.739397470126093,3.048696718274099,54.06276959543894
184.1963485,0.6899743908641935,0.3128524672365349,26.733107442961405,3.258343939693991,57.78062802936329
184.22438649999998,0.6899250128936463,0.31280246489457614,26.726889902611802,3.2113864054789474,56.948088172550285
184.2525235,0.6898752659912698,0.31275228286197265,26.72065092825877,3.2144313669200044,57.00224984031735
184.281069,0.6898255000012996,0.3127013690498661,26.714321905143663,3.025543124112399,53.65280863974772
184.30967950000002,0.6897742690289564,0.31265033603117226,26.707979004538828,3.2075716619445367,56.88093924659797
184.3379885,0.6897242340809515,0.3125998375646842,26.70170347055389,3.1985090161277134,56.72039336336387
184.36608,0.6896740310219573,0.3125497238838601,26.69547666602646,3.340126718224471,59.23192570134387
184.394236,0.6896247280462402,0.3124994919290753,26.68923607652715,3.184862423075029,56.47871962223209
184.422457,0.6895742577158072,0.312449140772749,26.682981593084754,3.321975461645131,58.91038296067329
184.4512125,0.6895246861802078,0.31239783262773924,26.676609177391832,2.941214936048731,52.158305350251936
184.4797885,0.689472280514811,0.31234684140093455,26.670277064737476,3.4212509132598896,60.6712457217239
184.5078875,0.6894233069039937,0.31229669805509286,26.66405115803363,3.167575319138975,56.17281534012061
184.5364825,0.6893725536802449,0.3122456662310612,26.657715868066642,3.1666164439498634,56.15597606080372
184.564734,0.6893217804923196,0.3121952440950124,26.651457190463546,3.3372856610234245,59.18275278305373
184.59299299999998,0.6892722078646237,0.31214480524221117,26.645197355904877,3.1612937216898866,56.061910051047946
184.62133999999998,0.6892213684935279,0.3120942059595752,26.638918533173133,3.2975414981351236,58.47827823167308
184.649859,0.6891714443027182,0.31204329624735894,26.632602121627055,3.0841469768302905,54.694121109485415
184.6786335,0.6891199532729225,0.31199192695738637,26.6262296373474,3.167110010227552,56.16554997960054
184.706923,0.6890690804628833,0.3119414200850861,26.61996506574934,3.313360237831522,58.759323483989306
184.73502200000001,0.689019275195588,0.3118912499511995,26.61374317163521,3.2438590826428513,57.52695224162971
184.763205,0.6889690410519156,0.31184092644798234,26.607503168662856,3.248893814472318,57.616405787226306
184.791483,0.6889188977298619,0.31179042988810773,26.601242624328282,3.1803556907629815,56.40110376878303
184.81976500000002,0.6888682857206191,0.3117399227405417,26.594981686277272,3.236343588901551,57.394172075847926
184.84798999999998,0.6888180887948092,0.3116895139378217,26.588733855347424,3.2031414421428215,56.8055214214783
184.876566,0.6887676403693931,0.3116384747392991,26.582408823407476,3.0641842367980936,54.34137028229178
184.90520700000002,0.6887161514764899,0.31158731587458144,26.576069903017952,3.1703383814347905,56.224112654138814
184.933497,0.688665430896636,0.3115367804470006,26.569809155521362,3.2337170654438827,57.34826384028531
184.96174100000002,0.6886151545376322,0.31148632368473866,26.56355907064234,3.188600234270968,56.54830506762369
184.99032449999999,0.6885645583281427,0.31143525683909334,26.557234347334862,3.0612623672723704,54.29018843860237
185.018534,0.6885130288945882,0.3113848546312517,26.550992860482193,3.372882564849933,59.81681405245106
185.04665949999998,0.6884637296327346,0.3113345989879047,26.544770432864265,3.092239373012735,54.83987052786004
185.075617,0.6884124600696621,0.31128285301200986,26.538364427870633,2.95581364778293,52.42056046394744
185.104071,0.6883601446914251,0.31123200311592153,26.5320702927011,3.3481968183136614,59.3795444802063
185.13203650000003,0.6883106361102972,0.3111820226694671,26.525884682489057,3.191517203972853,56.60102848838407
185.160269,0.6882600285606529,0.311131561458226,26.51964048311602,3.205868960194278,56.8557198042435
185.18834149999998,0.6882095245634223,0.31108138264489,26.51343213545531,3.2676906062885074,57.95228717922667
185.21688699999999,0.6881594504040633,0.3110303546858697,26.507119655098435,2.974550329296441,52.7536179160926
185.24544,0.6881072105822772,0.31097930960263004,26.500805991826187,3.2624349787660303,57.85941922220168
185.2735775,0.6880570693492608,0.3109290036712185,26.49458466794008,3.1709533532993923,56.237151807817106
185.30203899999998,0.6880062786107333,0.3108781147728725,26.48829217282042,3.098235847776932,54.947661206184144
185.3303665,0.6879549345180547,0.31082746175676873,26.482029767755748,3.241800728016405,57.4939729238425
185.358839,0.6879045842966414,0.31077654572115987,26.475735772359272,3.0358569808719493,53.84167804388742
185.387415,0.6878526782283777,0.3107254408156931,26.46941936482233,3.1967778179088917,56.69581601419889
185.41540750000001,0.6878019155392241,0.3106753757427108,26.463232385526325,3.3302191301179076,59.06260818030332
185.4436365,0.6877520656754186,0.3106248839732227,26.456993585773766,3.0801493702841727,54.62769190241273
185.47216650000001,0.6877004120914992,0.31057385001925625,26.45068872191141,3.1708803176940226,56.23700721437102
185.500517,0.6876494392396136,0.3105231333527798,26.444423981214054,3.159627507463673,56.037597236837115
185.5290435,0.6875983901322686,0.31047209800111786,26.438120805434583,3.083408450190815,54.68597437114618
185.55757749999998,0.6875467424596061,0.310421045368496,26.431816428814592,3.1625112937311695,56.08907254233334
185.58596999999997,0.6874956250214518,0.310370242057148,26.425543766914387,3.160326487253701,56.05048771799421
185.6141835,0.6874444455341749,0.3103197552181671,26.419311095212525,3.258140870707516,57.78545880583567
185.6422065,0.6873939323045934,0.31026960549185395,26.4131209438653,3.254920971756709,57.72851838671666
185.670527,0.6873433989431929,0.3102189195224683,26.40686551679489,3.0989284826153254,54.962032517250535
185.69913350000002,0.6872917718259526,0.310167717758938,26.400547366129498,3.0962769224357833,54.91516691857166
185.7276215,0.6872401651782775,0.3101167241532574,26.3942558336751,3.145002064697905,55.77951360913585
185.75588850000003,0.687188923940897,0.310066122237431,26.38801354680176,3.2017193735539458,56.785612961552175
185.7840945,0.687138073849118,0.31001562563379637,26.381785164046775,3.1757169442192157,56.324598398421195
185.812567,0.68708701173826,0.3099646479699254,26.37549837071852,3.0725048019344836,54.4941851994942
185.84117700000002,0.6870351569717204,0.30991342011157724,26.36918165796681,3.1108596163677764,55.17461202144701
185.86936,0.6869835558594268,0.30986295287579785,26.362959651675137,3.289061491226569,58.335393331885676
185.897459,0.6869332039397334,0.309812632146935,26.35675661389423,3.158972615711119,56.02827578221935
185.92562700000002,0.6868818652772434,0.309762183916854,26.350538766920582,3.263671448906338,57.88540696571193
185.95417650000002,0.6868312228718031,0.30971104839697844,26.344237137573568,2.981582674910939,52.88235586320765
185.98262649999998,0.6867784603714476,0.3096600870415784,26.337957899990037,3.315907145460223,58.812220091002104
186.010943,0.6867281371110573,0.30960936078964746,26.331708551440006,3.0449674741377875,54.006886424375786
186.0396525,0.6866758155792028,0.30955792639830554,26.325372899456944,3.1206565580461385,55.3495054153715
186.06796150000002,0.6866240255699946,0.30950720544737154,26.319126052889185,3.24669377149136,57.585131924289314
186.0962585,0.6865731143417917,0.309456501940647,26.312882271966927,3.1260484637235044,55.445462886136795
186.1245175,0.6865213256473355,0.3094058624631713,26.306647290899562,3.254704503542968,57.72755167012222
186.153048,0.6864705108916418,0.3093547323340049,26.30035282604098,2.981633558282609,52.884343912184455
186.1813495,0.6864176933668269,0.3093040084873696,26.29410929815306,3.364296468891463,59.67169603967399
186.20894099999998,0.6863676692036886,0.3092545531936298,26.28802279753667,3.325682267186657,58.98697353350196
186.2372,0.686317390558373,0.3092038974034388,26.28178945438418,3.0201150819141573,53.56734467332936
186.2657685,0.6862648979428878,0.3091526826254163,26.275488255439594,3.1611648254342883,56.069289014221106
186.294127,0.6862134516500994,0.30910184013228564,26.269233784511734,3.1178531633194044,55.30123603225728
186.322577,0.6861616802258637,0.3090508293928536,26.262959541521255,3.115548513232154,55.26052093747516
186.35082849999998,0.6861098582952253,0.3090001703862284,26.256729477919134,3.225969377818754,57.21922410957419
186.3790685,0.6860587674853346,0.3089495278276519,26.250502350077,3.134388663024659,55.59501333821691
186.40765199999998,0.6860069449353775,0.3088982650110679,26.244199883312614,3.0658678542395985,54.379812438600574
186.43616300000002,0.6859545593351982,0.30884712793350405,26.237913806904544,3.17797179744852,56.368384940004944
186.4642815,0.6859029582037417,0.30879669063508575,26.23171466266439,3.2659283140470676,57.92865734135575
186.49244549999997,0.6858519618238114,0.30874616752185297,26.22550587805304,3.1546690748633193,55.9553848627195
186.5206015,0.6858001522336821,0.30869565454533837,26.21929924639222,3.26317676127106,57.88018918865695
186.54889150000002,0.6857491431700051,0.3086448969103021,26.21306346660279,3.0786206606446997,54.60680813392584
186.5772195,0.6856968012397251,0.30859406680672125,26.20681970128734,3.2328083469131217,57.341868814817985
186.605444,0.6856456110609619,0.30854341813544045,26.20059913545501,3.1239837785242663,55.411757038713006
186.6339705,0.6855936043409021,0.30849222317063574,26.19431240100535,3.0847789243437123,54.716521116309195
186.66222249999998,0.6855412667516525,0.30844151650592666,26.188086547257626,3.2675354992689787,57.958350265990575
186.690512,0.6854902214646362,0.30839073820502394,26.18185281274809,3.0736784577624547,54.519944405184454
186.7190075,0.6854377031779164,0.3083395857488677,26.175574070978975,3.1686201484756715,56.204155952102404
186.747477,0.6853858607530444,0.30828847554686956,26.169301443206834,3.088892900349985,54.79013618024416
