T(K),Fc,X,m(mol/kg),cp(J/gK),cpm(J/molK)
181.500094,0.9181548916280996,0.31764836337309016,27.333688169747195,4.038740265348653,71.59970382357794
181.528048,0.918142075862417,0.3175987478921345,27.32743170496726,4.132513905463533,73.26235369945394
181.556582,0.9181293178445028,0.3175481010932818,27.321046130258367,3.1838010361225972,56.44347335421698
181.5851195,0.9181159621373876,0.3174974461707131,27.31466047925007,4.13357136026613,73.2815284181237
181.6132375,0.918103191808662,0.3174475339897605,27.308369386655624,3.8064495354148855,67.48238216786555
181.6417335,0.918090210886308,0.31739694890047976,27.301994417223536,3.594972485857633,63.73341146839335
181.670069,0.9180770851313532,0.31734664679287594,27.29565604733154,4.07755605176177,72.28909597857331
181.6983165,0.9180642420771032,0.317296498973932,27.28933804848293,3.7541240745089843,66.55531315146322
181.7264045,0.9180511876911506,0.3172466323892087,27.283056401947103,4.352288646338456,77.16014723200826
181.754515,0.9180384818526864,0.31719672392176734,27.276770398165315,3.7438837046678475,66.37414755908314
181.7830295,0.9180253975925876,0.31714609618340184,27.27039474056782,3.7449483148157996,66.39321543215597
181.8115065,0.9180123118465948,0.31709553300841686,27.26402815709536,3.7963861950191604,67.30534038455896
181.84018550000002,0.9179992526243386,0.31704460911358184,27.257617106967164,3.4660918428040635,61.449800941330324
181.86848300000003,0.917985971885347,0.3169943605963025,27.251292020378454,4.407403226433607,78.13838973961238
181.896342,0.9179732538414188,0.31694488874688065,27.24506560683565,4.141708357469423,73.428122627322
181.9241625,0.917960366771155,0.31689548328516515,27.23884844874245,4.487642355493704,79.56139424587298
181.9525285,0.91794767517305,0.31684510703757424,27.232510053372284,3.356591413660234,59.50916918024971
181.981608,0.917934277122652,0.316793461493804,27.226012924095915,3.4496680885997915,61.1595120310556
182.01011499999998,0.9179209196851792,0.316742830575241,27.219644390471267,4.260743159084226,75.53936384905464
182.03824049999997,0.9179080388807164,0.3166928751419121,27.21336174671051,4.056673773307877,71.92159372494976
182.0665265,0.917895023165413,0.316642632524994,27.207043911808785,4.031285726076915,71.47169083399602
182.09470950000002,0.9178819852656142,0.3165925707425081,27.200749740147543,4.220514087045055,74.82678450771255
182.1229805,0.9178690551216852,0.3165423505068384,27.194436572923202,3.9179901754995257,69.46344664677926
182.1512015,0.9178559267211502,0.3164922169412638,27.188135226274948,4.327121165124499,76.71729769551843
182.179373,0.9178430333785692,0.3164421691551561,27.181845583285536,4.005016888672743,71.00678429022442
182.207537,0.9178299411997274,0.31639213252667486,27.175558263143035,4.346850707080977,77.06753533564628
182.23597949999998,0.9178170455032488,0.3163415988981728,27.169209426874197,3.617186873487307,64.13113949701543
182.26459,0.917803686730073,0.31629076452788263,27.16282375354197,4.116275213679907,72.97997105478997
182.292952,0.917790626459825,0.3162403694372721,27.156494198529742,4.016694564992122,71.21465141652533
182.3218215,0.9177774875317458,0.3161890702804363,27.150052052224712,3.3969987269781896,60.22782950281565
182.3503365,0.9177639486221923,0.3161383987406303,27.14368967088116,4.551799072521738,80.70234965959447
182.37823350000002,0.917751127787658,0.3160888231640836,27.137465812464438,4.29213259582648,76.09874023078177
182.40658050000002,0.9177381506713618,0.3160384456213841,27.13114219720224,3.8592673982309718,68.42431666124881
182.4353815,0.9177249042010026,0.3159872588799181,27.124717961710655,3.6046803113433303,63.910708753393386
182.46373599999998,0.9177114973193996,0.31593686334341275,27.118393966312755,4.503634813934076,79.84933587143321
182.491873,0.9176986545308776,0.31588685206938005,27.112119112032588,3.868254250245496,68.58425158237095
182.52018950000001,0.9176854393513918,0.3158365194128594,27.105804860504627,4.1611030045466455,73.77668185388602
182.54859,0.917672420881023,0.315786035078793,27.099472514159793,3.6768673677382475,65.19133579532338
182.5769525,0.9176591181576722,0.3157356159130059,27.09314927457632,4.144490035224412,73.48255991809897
182.60526900000002,0.917646125372296,0.3156852761335457,27.086836920674884,3.661939636531049,64.92704219975256
182.6338525,0.917632855564768,0.3156344592612115,27.0804656836157,3.6604282737083116,64.90043545165041
182.6625125,0.9176196054352092,0.31558350391619483,27.074078035328355,3.484537813377234,61.78202893883417
182.69119899999998,0.9176062547645448,0.31553249896710833,27.067685121234746,3.5823482017734762,63.51642676599029
182.71965999999998,0.9175929701665292,0.3154818924847158,27.061343092160485,3.796985854084481,67.322232153463
182.7476825,0.9175798190796852,0.31543206327653933,27.055099387643548,4.239598508097848,75.17016538646917
182.775694,0.9175669322480188,0.31538225121287844,27.048858739784837,3.826354916882573,67.84334815134957
182.80429700000002,0.9175537818002154,0.31533138479540035,27.042486935497475,3.4004893432492564,60.292697276125146
182.832831,0.9175403353517474,0.31528063854765703,27.036131127669865,4.002207976297937,70.96173382078084
182.8613455,0.9175272393064284,0.3152299244341318,27.02978028567691,3.504636057481431,62.139643756653165
182.8900055,0.9175138009991431,0.3151789489649855,27.023397662466195,3.8516091544149096,68.29191959218163
182.9182075,0.9175005597045076,0.3151287855701423,27.01711764637854,4.23382451022923,75.06910158255887
182.946722,0.9174875379995816,0.3150780637533452,27.010768656079808,3.4268005249622897,60.76009717186598
182.9753705,0.9174739957027862,0.3150271009570243,27.004390448695673,4.057980572340319,71.95166927085234
183.003584,0.9174608393471144,0.314976909402132,26.99810969299476,4.101242408597216,72.71895112819811
183.0320835,0.9174476925782492,0.3149262064428597,26.991765876770913,3.6811628680408797,65.27072974330815
183.060656,0.917434259650635,0.31487537096021295,26.985406422221708,4.060060111084834,71.98917083784124
183.08878950000002,0.91742103490897,0.31482531392883595,26.9791452730362,4.424122454117664,78.44460849807577
183.1172775,0.9174080017789684,0.3147746234975976,26.972805830211374,3.6163764817075252,64.12256191422364
183.146006,0.917394436135452,0.3147235024160607,26.96641347928447,4.10787277480868,72.83757752036253
183.174349,0.9173811685098102,0.31467306462976247,26.960107504501767,4.201131891156634,74.49139152714152
183.2027875,0.9173679529350556,0.3146224542023729,26.953780878198742,3.956221368445617,70.14902223350327
183.23134449999998,0.917354586088394,0.3145716301575906,26.947428488568875,3.99179288869931,70.77995950030304
183.2598405,0.9173412497405788,0.31452091193655207,26.941090264665437,4.004045281032721,70.99741871598553
183.288119,0.917327929888478,0.31447057810992607,26.934801005507296,4.300017804605755,76.24565374403866
183.316466,0.917314787097788,0.3144201196246866,26.9284970970595,3.923059631822988,69.56183198508512
183.345,0.917301393122958,0.31436932549641833,26.9221521930057,4.06231293783381,72.03121637449878
183.37350700000002,0.9172880652693848,0.31431857663482693,26.915813882182622,4.017370915263932,71.23453174326458
183.40207900000001,0.917274686461375,0.3142677092396062,26.90946170847355,3.9992694215426035,70.91377063445778
183.43084199999998,0.9172612875795776,0.3142164989378038,26.90306766546286,3.743222272528337,66.37382007238031
183.459559,0.9172477194719068,0.3141653676536706,26.896684441141584,4.072503172206543,72.21275403069446
183.4876085,0.9172343535000368,0.3141154220752122,26.89045015906026,4.782892232400205,84.80946479212518
183.5160775,0.917221401552171,0.3140647266887794,26.88412321325266,3.5136885706051375,62.30433452785883
183.5446495,0.917207631688822,0.3140138450007008,26.877773956708264,4.679412867394558,82.97507125635913
183.57277499999998,0.9171945731558888,0.3139637556116573,26.871524486901656,4.211967411840416,74.68657175400178
183.60101550000002,0.9171812123643304,0.3139134585691491,26.8652500271293,4.53344142411068,80.3871793040908
183.6296185,0.9171680359140144,0.31386251298300183,26.85889560054163,3.684666536117813,65.33685810906938
183.65812549999998,0.9171543241359792,0.313811735445291,26.85256307347819,4.653646577170874,82.51914597761336
183.68640349999998,0.9171412279111578,0.31376136289603096,26.846281978961876,3.9690286721398325,70.3796048198291
183.7148725,0.9171277211791158,0.31371064716720853,26.83995902391166,4.277810228269545,75.85520239112482
183.7433035,0.9171144352025458,0.3136599961703187,26.833645071934935,3.8981803940933566,69.1237128402109
183.77199000000002,0.9171009539408648,0.3136088869748846,26.827274947284785,3.7445480246338825,66.39965278774773
183.8003065,0.9170874170856148,0.31355843400482186,26.820987543341744,4.342428363818329,77.00170273898424
183.828909,0.9170742741744484,0.3135074684303953,26.814637197404974,3.2879120563272575,58.3027626725864
183.857546,0.9170604573276484,0.3134564383237577,26.808279755337516,4.273280780549371,75.77599507693257
183.8856455,0.91704727174832,0.313406363034854,26.802042185205607,4.057422411020525,71.94849194091256
183.91407650000002,0.9170339514474124,0.31335569396363816,26.795731577297882,3.761311379033424,66.69787962826913
183.9423735,0.917020442933877,0.31330526066828557,26.789451259017515,4.256752705414555,75.48356837058938
183.9707665,0.9170072389510172,0.31325465321585066,26.78315018065231,3.616755898331368,64.13490661629791
183.9992165,0.9169936294113236,0.3132039410811022,26.776836999896524,4.1397565552574935,73.40934345264223
184.0277045,0.9169803614160348,0.3131531581022403,26.770515933918908,3.514690474190712,62.32537389673137
184.0563035,0.9169667054647964,0.31310217411038727,26.764170787625385,3.93216748443179,69.7286234645026
184.0843645,0.9169533222394338,0.313052146146903,26.75794553812096,4.309273257886726,76.41601223439321
184.112418,0.9169401647444284,0.31300212849706877,26.751722478378767,3.9541604508181902,70.11902614710756
184.14113500000002,0.9169267784225826,0.31295092468761837,26.745352778460703,3.3395397417481165,59.22014755692467
184.1698595,0.9169129826214308,0.3128997042725083,26.738981962638356,3.937309480661414,69.82062039156368
184.197928,0.9168995787401164,0.31284965047426544,26.732757168654373,4.27563076065886,75.82031708195228
184.22590100000002,0.9168863938125408,0.31279976388046793,26.726554070816913,4.05077802311763,71.8331806900548
184.2546065,0.9168730702160656,0.3127485677289223,26.720189073669555,3.172655160258191,56.261434814652084
184.2835145,0.9168591805449592,0.3126970070996014,26.71377972095729,3.6975814510752647,65.57027011287228
184.3116975,0.9168456543876145,0.3126467363673788,26.707531637413304,4.18000491286921,74.12543814234773
184.339594,0.9168324418651792,0.3125969735275121,26.701347579205084,4.097183129731536,72.65693983646516
184.3683035,0.9168191773126884,0.3125457571465251,26.694983823463488,2.9920724114851516,53.05973881486148
184.397135,0.9168051824741136,0.3124943197601258,26.68859356157365,3.9187026339840707,69.49228692039448
184.42534849999998,0.9167917915637988,0.3124439816518814,26.682340792887704,3.902716644643391,69.20900022356265
184.45354700000001,0.9167783731392686,0.31239366705448285,26.67609185947197,3.996603810385488,70.87415794893892
184.481684,0.9167649861279932,0.31234345893778453,26.669857062209516,4.076923665472935,72.2987269789696
184.5105345,0.916751615820286,0.3122919742513288,26.663464687094667,3.067846660888136,54.404272516440884
184.53946150000002,0.9167375394111068,0.31224034958883123,26.657055893409723,4.077921009225342,72.31684315953005
184.567675,0.9167240856576024,0.31218999492588184,26.65080568696254,4.215351674588795,74.75422149764567
184.5962625,0.9167106776242804,0.3121389693696453,26.644473140224985,3.6140200592545115,64.09051276150755
184.62453299999999,0.9166968570505308,0.31208850625571716,26.63821131956407,4.761131914691409,84.43347518106654
184.6524795,0.9166837406122595,0.31203861817981643,26.63202175668285,4.132007702851634,73.27685494190264
184.6811015,0.9166702182133412,0.31198752083025244,26.625683090963367,3.7664344988945198,66.79399140371874
184.7098755,0.9166564472562287,0.31193614862084307,26.619311277727935,3.9200833201800322,69.51900708726522
184.73854649999998,0.9166427690964072,0.31188495679767214,26.612962784600796,3.92782332038071,69.6564741992395
184.7667525,0.9166290855085052,0.3118345917985502,26.60671775082997,4.639276800109836,82.27371145349909
184.794642,0.9166158406012386,0.3117847885883954,26.600543275181003,4.407551905945991,78.16448768193973
184.823092,0.9166024487152002,0.3117339810213338,26.59424520269798,3.791453300915244,67.23865735808849
184.851588,0.9165886578167342,0.31168308779510284,26.58793744408797,4.332793083527942,76.83914865973225
184.8798395,0.9165752113642798,0.3116326277593035,26.581684296375283,4.148478236274266,73.57066366424704
184.90856,0.916561643428826,0.3115813264752471,26.575327838587068,3.633258529528042,64.43375525964312
184.937277,0.9165477375908327,0.3115300278334178,26.56897265541125,4.12619130681416,73.17585150265693
184.96586050000002,0.9165341621561548,0.31147896407126135,26.562647511035777,3.7662008690393027,66.7918052902953
184.994532,0.9165203730476784,0.3114277394787455,26.55630338756201,3.924083933068072,69.5919927428552
185.02299349999998,0.9165067024758816,0.3113768864728523,26.550006218379707,4.029112567084839,71.45484114360643
185.0511765,0.9164931036157746,0.3113265275233324,26.543771145082758,4.319702852178065,76.60857609056092
185.0798175,0.9164796892200016,0.3112753465633045,26.537435230767084,3.344323737793685,59.3107081225753
185.1082215,0.9164656403020656,0.31122458548976223,26.531152226083385,4.692048009269101,83.21248948576053
185.1360075,0.9164524425875756,0.3111749253409252,26.52500638561002,4.282189500287136,75.94395189477862
185.16431649999998,0.9164389757844374,0.3111243268848829,26.518745333480698,3.908822029407763,69.32254108390288
185.1929575,0.9164252655054744,0.3110731313308104,26.512411332484337,3.787074616095983,67.16356182396997
185.2213615,0.9164114690266216,0.3110223557295118,26.50613021852414,4.278409286871361,75.87757739446668
185.249586,0.916397975516532,0.3109718973599796,26.499889264282057,4.055522518452623,71.92489024176696
185.27842900000002,0.9163843406213158,0.31092032949763015,26.493512026547045,3.325149476981412,58.97186383379004
185.3071845,0.916370241440955,0.3108689142682909,26.487154614650972,4.10189831055905,72.7477988183195
185.3355125,0.9163566796766782,0.3108182596845911,26.480892183008418,3.857695254979467,68.4170196552102
185.363619,0.9163429806332408,0.3107679975027429,26.474679173885818,4.397749739520998,77.99522299617003
185.3920575,0.9163296213587218,0.3107171378767172,26.46839323580899,3.3767989232940976,59.88857310714601
185.42082449999998,0.9163155915716628,0.31066568692112134,26.462035156823656,3.90314707212147,69.22372548699403
185.44892349999998,0.9163019049338172,0.31061542697100375,26.45582517331683,4.379837187866424,77.67822208598221
185.477091,0.9162885078604388,0.31056504077396807,26.44960049991469,3.820646761333493,67.7609455426695
185.5054,0.9162747442616812,0.3105143976920789,26.443345007890407,4.171311721588116,73.98036739951053
185.533907,0.9162611999498712,0.31046339656865046,26.437046218799125,3.536257533464825,62.71753772330825
185.56254,0.9162472341537848,0.31041216613767686,26.43072004754543,3.998670631127264,70.91890621226726
185.59100949999998,0.9162335571962906,0.3103612243691299,26.42443045362877,3.798991848984116,67.37767678691812
185.619326,0.9162197380198458,0.310310552525727,26.41817510813376,4.256767285432584,75.49685259032003
185.6475315,0.9162061978847432,0.3102600754895216,26.411944725033855,4.006645050254093,71.06096014396816
185.675993,0.9161924749129808,0.3102091364280479,26.405658238534915,3.918911545877226,69.50514231780072
185.704493,0.916178676260843,0.3101581245385891,26.39936369459679,3.984084740904631,70.66125058108426
185.7331375,0.9161649049026224,0.3101068500410247,26.393037684541632,3.7342392261621224,66.2302160513656
185.76149199999998,0.916150955138087,0.31005609071965495,26.386776160675296,4.4602953380158095,79.10772981232759
185.7896675,0.9161374534013784,0.310005647949624,26.380554598327485,4.031702953755312,71.50642965206845
185.81809049999998,0.91612366577984,0.30995475813767515,26.37427881999125,4.073112507215401,72.24108279109221
185.846636,0.9161099132595246,0.3099036449985607,26.367976432435775,3.792554696365289,67.2652827800544
185.87505950000002,0.9160959956342416,0.30985274631652004,26.36170141567227,4.1891886469381445,74.30025610931857
185.9031775,0.9160823502279086,0.3098023907660357,26.35549426933404,4.199821219158003,74.48905355126276
185.9314675,0.9160687177586242,0.3097517232236032,26.349249578970074,3.904450303188868,69.25048508118388
185.959784,0.9160548943516074,0.3097010042253426,26.342999464871006,4.144723046508699,73.51224830167625
185.9883405,0.9160412250720602,0.30964985129129147,26.33669680695505,3.531991181353286,62.64480761880572
186.01687850000002,0.9160271572106826,0.3095987274085398,26.3303986616618,4.140651802917199,73.44047203535017
186.045348,0.9160134946909464,0.3095477221536588,26.324116060023098,3.605179788782185,63.94328624017883
186.07393150000001,0.9159994818925618,0.3094965085405824,26.31780872758959,3.9660340558725626,70.3437869843022
186.101935,0.9159856972594352,0.309446330109428,26.311629792778287,4.505277840443187,79.9083458151784
186.130198,0.915972237426806,0.3093956826469446,26.305394012332645,3.61225744858988,64.06938036116979
186.158774,0.9159581889847148,0.3093444701437511,26.29908959328305,4.036883218939488,71.60103430696715
186.186713,0.9159444132789248,0.30929439520004004,26.292926115323855,4.592254217201584,81.451724626485
186.214991,0.915930973985144,0.3092437085867903,26.286688260033745,3.5742836814311514,63.3964076235954
186.2439255,0.9159168566626664,0.30919184097283775,26.28030601001407,3.6410703939370803,64.58118414362517
186.2724825,0.9159027660927136,0.30914064581782447,26.274007445054057,4.155771645334728,73.71058957770784
186.300612,0.9158890052635446,0.30909021292320155,26.26780357404343,4.27824047033123,75.88302980766181
186.3291195,0.9158753203087956,0.30903909811931857,26.261516743829038,3.5700001555515297,63.321177901885
186.35745500000002,0.9158611791314196,0.30898828751368823,26.25526825006939,4.4839055189291726,79.53137192498632
186.38536299999998,0.9158476508732258,0.3089382393828611,26.249114420809107,4.1525519343759125,73.65434064792805
186.41382449999998,0.9158339158454992,0.30888719443310175,26.24283894254861,3.6312416111109793,64.40798268356777
186.4426295,0.915819835449609,0.30883552907939976,26.23648813558005,3.62999625280122,64.38608517375003
186.4710795,0.9158057530601084,0.30878449615731574,26.230216000380196,4.14511933026904,73.52315878244264
186.4990565,0.9157920082211184,0.30873430750566694,26.224048532375317,4.331173584303358,76.82347804055118
186.527594,0.9157783771772616,0.30868310906932456,26.217757898969605,3.3246011567221956,58.96973932937388
186.5565285,0.915764072204934,0.308631193948074,26.21138015949147,3.7394931688986834,66.32903812955207
186.5849785,0.9157500408437762,0.308580143761099,26.205109610577235,4.0583867061281005,71.98560501651414
186.61324150000002,0.9157361986551462,0.30852942481997847,26.198880665842015,4.062132530148831,72.05225706159656
186.641169,0.9157223389779886,0.3084793037188202,26.192726041239695,4.615672057762723,81.87092552500972
186.6695615,0.9157088144431538,0.30842834376844497,26.186469324704927,3.414517873399341,60.56551584922768
186.698328,0.9156944870900297,0.3083767080925187,26.18013058495548,4.060079898406883,72.0164819734906
186.726515,0.9156805841107056,0.30832610825123924,26.17391992127407,4.266143742348502,75.6718013303088
186.754969,0.9156668138374447,0.30827502471069673,26.167650809663925,3.637337593781841,64.51838342908262
186.783446,0.9156526369932146,0.3082238954438441,26.161377013512677,4.188823227849219,74.30074667510807
186.811713,0.9156388325906492,0.3081731388226011,26.155149859904178,3.921864175050267,69.56566861888194
