T(K),X,m(mol/kg),cp(J/gK),cpm(J/molK)
181.8958075,0.31694583792748726,27.245185060044292,4.261202844431753,75.54662976681699
181.924124,0.31689555165735495,27.238857052042516,3.7219510582381434,65.98645589012176
181.95286,0.3168445183019418,27.232435983527942,3.8823469684424206,68.83031680905907
181.981585,0.3167935023429531,27.226018062625528,3.758107241741996,66.62786060020268
182.0101495,0.3167427692989422,27.2196366834964,4.092034357299734,72.54830008504524
182.038313,0.3166927463674986,27.213345552586855,4.214161930302353,74.713733819583
182.066668,0.31664238118223204,27.207012308663156,3.9629320906576573,70.25983284944569
182.0952135,0.31659167546226785,27.200637186677206,4.048539452423725,71.7777973395296
182.1237855,0.3165409204838489,27.19425681884826,3.9347142148335275,69.7599588604474
182.152121,0.31649058344714953,27.187929926034172,4.257283153872554,75.47911818832354
182.180323,0.31644048140481207,27.181633495109075,4.027998817764167,71.41424841524884
182.208781,0.3163899223655214,27.175280568000083,3.9873231939994884,70.69329751534588
182.23707050000002,0.3163396604801934,27.168965910740926,4.1938871510634845,74.35579121940259
182.26561550000002,0.3162889424047381,27.16259488108835,3.7727651511970324,66.88967723290465
182.294123,0.31623828869466564,27.15623288013784,4.2676850497763485,75.66463785168652
182.322451,0.3161879516752274,27.149911588590154,3.9700356774773615,70.38761758103729
182.35085149999998,0.3161374835575271,27.143574768024653,4.203534037891492,74.52769470259334
182.379176,0.3160871482147934,27.137255550340033,4.020513867159914,71.28299582421059
182.40743500000002,0.31603692699072683,27.130951586330106,4.2153361489619074,74.7373765461847
182.43571300000002,0.31598666970573763,27.1246440225016,3.928159275592916,69.64596864076249
182.46441099999998,0.3159356636117107,27.11824342668098,3.7378341641725954,66.27171353229323
182.49312049999997,0.3158846346841421,27.11184092061923,3.8513572627972232,68.28467626794135
182.5215705,0.31583406462140545,27.105496929713166,3.928511214048487,69.65282106324157
182.549887,0.3157837294927845,27.09918334242018,3.934065007389335,69.75149260619953
182.5779175,0.31573390041943766,27.092934145067716,4.170618465872307,73.94582904245686
182.606337,0.3156833774451115,27.086598852916868,3.5603175094477955,63.12526513777543
182.634909,0.31563258092687274,27.08023020293114,4.022669293770027,71.32307959145093
182.66290099999998,0.3155828131750933,27.07399145210009,4.094409018282398,72.59525368143456
182.6913625,0.31553220825493694,27.06764868636537,3.565544642623523,63.21849418662651
182.7200685,0.3154811661131617,27.061252069749166,3.842680357300929,68.13241868065413
182.74829749999998,0.3154309696652913,27.054962366048937,3.994541485040845,70.82518838150163
182.77646099999998,0.315380887244225,27.04868786929392,3.8874956969384016,68.92741276347417
182.804377,0.31533124252307404,27.04246911501933,4.232399323409426,75.04295631946358
182.832438,0.31528133749516696,27.03621866224732,3.7739594527920763,66.91473729958635
182.8607275,0.31523102359751226,27.029917922060317,4.052458941549388,71.85292135476224
182.88933,0.31518015045783276,27.023548090091275,3.545873519812518,62.87099308989384
182.9178945,0.3151293423226238,27.017187341846697,4.168789900752419,73.91598346576839
182.94621899999999,0.31507895851619383,27.01088064787606,3.8534699006722355,68.32530572910953
182.974314,0.31502898041091537,27.00462565336562,4.481605843917072,79.46292024076577
183.00239399999998,0.3149790264529901,26.998374593058504,3.9323928556560457,69.72507852752418
183.03105399999998,0.31492803805408504,26.991995026632658,3.9616750557491747,70.24448628606461
183.0593895,0.31487762434197286,26.985688297439104,4.277456118576543,75.8438227167798
183.0872675,0.31482802204087035,26.97948398113079,4.427132712023388,78.49797146609323
183.1155345,0.3147777250003453,26.9731936831718,3.907495333529879,69.28442542929467
183.144385,0.31472638698589883,26.966774150150332,3.848767234118055,68.24330999053316
183.1727625,0.31467588795656704,26.96046046588208,4.32958768475026,76.76906301876268
183.200785,0.31462601802961,26.954226348758677,4.143659379384756,73.47253026704702
183.2289375,0.31457591409848085,26.947963892904163,4.160331501074742,73.76836190384792
183.257109,0.31452577367897566,26.941697792886625,4.091194079681485,72.54267056405787
183.2851505,0.31447586196781896,26.935461185152338,4.26232252987879,75.57723794920314
183.31350550000002,0.3144253895292544,26.929155436406315,3.776669478369196,66.9660909064174
183.3421045,0.3143744799800172,26.92279601795085,4.004754147283662,71.01058713102788
183.37024150000002,0.3143243901003483,26.916539911013484,4.191175314341803,74.31634201825183
183.398539,0.3142740117374767,26.910248695093955,3.8304052828233126,67.91950088394046
183.4268555,0.3142235967655226,26.903953832792702,4.153910302511377,73.65600067861835
183.4551565,0.314173206594421,26.897662991934958,3.8344975081445494,67.99245785618353
183.4836905,0.314122398721615,26.89132093998139,3.9331028466271465,69.74110999871611
183.511931,0.31407211063260915,26.885044694788725,4.122737523318257,73.10389164154039
183.5401445,0.31402186780306357,26.87877501720267,3.966048994432392,70.3257128843949
183.56845700000002,0.3139714458267279,26.872483907599968,4.042881037179081,71.68830177077876
183.596411,0.3139216594949656,26.86627301415451,4.329713631592195,76.77463299867378
183.624777,0.31387113651850856,26.8599711450078,3.6576754786680237,64.85821787683548
183.6532345,0.3138204476528174,26.8536495166239,4.231814000142873,75.03911096901776
183.68160849999998,0.3137699045951347,26.847347002466666,3.723969883228464,66.03414119405659
183.710116,0.3137191207782941,26.84101540159546,4.086222892097023,72.45789238112064
183.73832950000002,0.3136688577703631,26.834749656518827,3.9946022109484542,70.83345746663703
183.7665695,0.31361854462113314,26.828478579911025,4.07025827520519,72.17522222933454
183.79479800000001,0.3135682490165742,26.822210608903994,4.0255078982582155,71.381900004722
183.8231835,0.31351767069848496,26.81590833160354,3.959845583594357,70.21775448972949
183.851424,0.31346734776599056,26.809638798036243,4.209957117194785,74.65306064035856
183.879626,0.31341709045776683,26.803378357586254,4.024261842772391,71.36042601805104
183.9082855,0.3133660147975258,26.797016915812023,3.7855768001459187,67.12812903178308
183.936667,0.31331543151740054,26.790717732364513,4.298775279936747,76.2286959184385
183.96482350000002,0.3132652462248884,26.78446902773201,4.000389782260864,70.9377341796985
183.993197,0.3132146711002533,26.778172707950308,4.0933987802060186,72.5872468930316
184.021559,0.31316411339267997,26.77187948327467,4.016893970693603,71.23081318976426
184.0497535,0.3131138512011822,26.765623961587206,4.241317742352661,75.21069487242019
184.0779175,0.3130636403153859,26.759375739309117,4.01467768247584,71.19192433473371
184.106394,0.3130128691737073,26.753058727706595,3.9058372941974504,69.2620699807373
184.1349775,0.312961904081657,26.746718523539208,3.8834324558749205,68.86496803579202
184.1634925,0.31291105793977136,26.74039405439867,3.9568563876955865,70.16720133562043
184.19174049999998,0.3128606847430676,26.734129335245093,4.13222963941577,73.27731973410162
184.2201715,0.3128099820302017,26.727824562923168,3.7696761570506045,66.84831100424184
184.24869,0.31275912005276185,26.721500921081944,4.019360194940187,71.27620957351279
184.277018,0.3127085946199884,26.71522004832948,3.9140594172045367,69.40908949886933
184.30522,0.312658290730652,26.708967633218283,4.110268782101476,72.88873526812768
184.3331815,0.3126084126670341,26.702769048737512,4.127763970655139,73.1991935191209
184.3613915,0.3125580881303084,26.696515890520494,3.8688607740451926,68.60816454166138
184.39015799999999,0.3125067675196706,26.690139906320486,3.6131828499420244,64.07430791931543
184.41858100000002,0.3124560564212032,26.683840581822086,4.226837618676423,74.95676186688377
184.4466805,0.3124059192539688,26.67761346442397,3.9582954228788894,70.19476292062302
184.47501599999998,0.31235535771911543,26.671334559497744,4.056564315138671,71.93763211733838
184.5033895,0.3123047250642897,26.665047747888188,3.982870208479813,70.63097376597605
184.53195399999998,0.31225374820620344,26.658719133371243,3.9292266590523113,69.67988051530861
184.5603585,0.31220305352824923,26.652426480948776,4.186311065708074,74.23916516495098
184.58885850000001,0.3121521850267395,26.64611318439404,3.8822113464524195,68.84652611225674
184.617415,0.31210121227027543,26.63978788532225,4.158343110059394,73.74362001001502
184.6457925,0.31205055562962414,26.633502742246915,4.062954182179729,72.0522130830083
184.6739105,0.312000358870184,26.627275571180707,4.423149958576198,78.44013266640978
184.7023145,0.31194964813725085,26.620985561619264,3.795601423258109,67.31138484901908
184.7312415,0.3118980001452527,26.61458025017609,3.8988454239715615,69.14252486168625
184.75953900000002,0.311847472642086,26.608314830599358,4.366953424795731,77.44422564861115
184.787371,0.3117977729780198,26.602152960743677,4.312827289365258,76.48456343260965
184.81566850000002,0.3117472386509751,26.595888520057493,3.896986468598346,69.1101582796664
184.8440155,0.31169661245622576,26.58961361344086,4.25878090552492,75.5265339925394
184.8723435,0.31164601671189207,26.583343403192146,3.919709531631311,69.51354032183723
184.9008125,0.3115951656108425,26.57704247586663,4.138151746769877,73.38768824311057
184.9288655,0.3115450540995044,26.570834101225998,4.337819449148678,76.92889966558225
184.9576705,0.31149359568472784,26.564459797608638,3.4500630400725996,61.18519764672256
184.986426,0.3114422220524301,26.558096946639946,4.371459662761691,77.52595012390177
185.01458250000002,0.31139191503010755,26.551867120060628,3.9796660069832583,70.57786333091636
185.04281500000002,0.3113414686850066,26.54562095426024,4.3002326813134175,76.26321306198808
185.07116200000002,0.31129081417531995,26.539349934641947,3.8802931180609956,68.81592378640511
185.09961199999998,0.3112399719960799,26.53305660909549,4.2094570273005925,74.65377323709335
185.12777549999998,0.31118963823301565,26.526827131260827,4.17596833121596,74.0600735214929
185.1562485,0.3111387476978775,26.520529670931733,3.936629808268511,69.81565106411745
185.18455749999998,0.31108814664817885,26.514268955515657,4.343760050471218,77.03628100421514
185.212771,0.31103771267975383,26.50802982765266,4.015438917076042,71.21373557200921
185.240794,0.3109876156546814,26.50183328690582,4.5197836858072025,80.15851216222858
185.26905299999999,0.310937093092156,26.4955850236225,3.7812135348086775,67.06014147024172
185.2975335,0.31088617081360564,26.489288253454383,4.280494248332965,75.91514982729147
185.32554900000002,0.3108360762945082,26.48309474745781,4.2030242393186255,74.54142378037476
185.3537545,0.3107856383696571,26.47685969362069,4.078355542980313,72.3306112389773
185.3822805,0.3107346235614149,26.470554254633605,3.8821011695528367,68.85019533740217
185.410616,0.31068394568343083,26.464291384362195,4.2399300901751396,75.1966150571018
185.43879900000002,0.31063353682746936,26.458062673847476,3.994490450551175,70.84386457444877
185.467261,0.3105826251625897,26.451772758880914,3.9374432884739927,69.83231547308962
185.49560050000002,0.31053192883089503,26.44551037042774,4.0746443909182535,72.26584938178937
185.52391649999998,0.3104812707477406,26.439253626551782,3.9206090496017216,69.53415876100433
185.55219499999998,0.31043067595831,26.433005617599463,4.0859716417159175,72.46716655642143
185.58042799999998,0.31038015877920955,26.42676810751341,3.963898164365878,70.30232456557607
185.6088055,0.3103293792108291,26.42049912032842,3.952608332694533,70.102297109634
185.6374195,0.3102781725342807,26.41417833930714,3.7400773700634637,66.33310625146245
185.6656215,0.3102276993062541,26.40794901112601,4.34542003290672,77.06954119215713
185.6938045,0.3101772562478921,26.401724317201317,3.7411190644478496,66.3519672609388
185.7218385,0.3101270760594703,26.39553296472208,4.486949510171566,79.58014235041134
185.7502045,0.3100762977116676,26.389268726696347,3.45083915564747,61.2039591689305
185.77875,0.3100251940775333,26.382965290838328,4.321536206714617,76.64683641617168
185.80651699999999,0.3099754803289391,26.376834187920267,4.185189709479069,74.22880532186811
185.834635,0.30992513429602025,26.370626006875252,3.9865242021077325,70.70546564283596
185.8628865,0.30987454530506453,26.36438877898388,4.060488191487581,72.01750961711443
185.8911575,0.30982391744671395,26.358147674461044,3.969316124178557,70.40067165364158
185.9196575,0.3097728754814537,26.35185644810307,3.849007315382988,68.26704866551906
185.947966,0.30972217248073003,26.34560792229449,4.164838050041975,73.86892491029057
185.9762555,0.3096714995130831,26.33936401475956,3.877401630512691,68.77105966524262
186.004641,0.30962065055737475,26.33309934339995,4.0875545742281325,72.4986240206835
186.032889,0.30957004389412013,26.32686543903113,4.025071678995557,71.39060868299106
186.061434,0.3095189010630937,26.320566416018508,3.8224137408835346,67.79636969818492
186.0898575,0.30946797182116476,26.31429462698623,4.1654015771468975,73.88000174137895
186.11773549999998,0.3094180160218196,26.308143613310655,4.366865166452408,77.4535008496119
186.145941,0.3093674693320226,26.301920749510728,3.848117989519135,68.2528693980569
186.1742615,0.30931671246166564,26.29567292664121,4.222911626216932,74.9006863308525
186.20241800000002,0.30926624544045617,26.289461692576733,3.973802561753308,70.48250849505999
186.23081050000002,0.3092153512890942,26.283198808531857,3.9731280586969624,70.47075159195116
186.259272,0.30916432927833737,26.276921116746085,3.884395346518949,68.89711585037217
186.2874665,0.3091137817745918,26.270702722099905,4.207008547503969,74.6194898980814
186.315508,0.3090635044759555,26.264518470871632,3.999561604836221,70.94021982996328
186.34409549999998,0.3090122440030152,26.25821421291849,3.660784782361719,64.93152744302503
186.372744,0.30896086986447807,26.251896914225107,3.934609034974153,69.78856879954465
186.40101099999998,0.30891017563488543,26.24566414222994,4.030489720442692,71.48942324530518
186.4292855,0.30885946374913553,26.23943011424796,3.940603404462911,69.89529986587277
186.457766,0.30880837812517214,26.23315106741387,3.8372405319555325,68.06213145998922
186.48569,0.3087582865284838,26.226995099849283,4.482187251900588,79.50194827377794
186.513686,0.3087080616166853,26.220823644326465,3.7545469274678056,66.59575838385118
186.542273,0.3086567721398988,26.214522304310247,3.876705414597734,68.76273087276319
186.570677,0.3086058066673054,26.208261696971995,3.916373214180957,69.46653902776704
186.59893649999998,0.30855509617929255,26.2020333279903,4.0366719230249855,71.60054252041496
186.6274935,0.3085038474768293,26.195739782478505,3.678267988083521,65.2435387446846
186.6560045,0.3084526769373736,26.189456766358827,4.114909968382905,72.98872192322565
186.68402700000001,0.3084023788537754,26.183281781541716,4.153713081001865,73.67721038655685
186.71240849999998,0.3083514320495908,26.177028070293293,3.7712881939666305,66.89407856264633
186.74099999999999,0.3083001038454893,26.170728473870643,3.9352855085080187,69.80322447036451
186.7692515,0.3082493816324687,26.164504170122953,4.071658444160677,72.22238848400437
186.797362,0.30819890822801693,26.15831130457809,4.0578033711274335,71.97683881910437
186.825663,0.3081480883872914,26.15207684573419,3.880929394810058,68.8396705632132
186.853884,0.30809740780563705,26.145860382940196,4.133441451921713,73.3189268899918
186.882231,0.3080464965145431,26.139616538254522,3.7789468496853664,67.03110315928093
186.9109215,0.307994963759022,26.133297411765337,3.8240287400828294,67.83096880701996
186.9394745,0.30794367342984114,26.12700894689571,3.920052987157541,69.53446105938421
186.9675355,0.30789326245851134,26.120829204149345,4.302791839421511,76.3237592481361
186.995753,0.30784256589514314,26.114615359283817,3.765871287244588,66.79995305301114
187.024298,0.3077912763866749,26.108329763742393,3.978394836220076,70.56995664280696
187.05217599999997,0.307741180913114,26.10219139784982,4.426064957448899,78.5110896094717
187.08029449999998,0.30769064882742647,26.096000432404548,3.7748655691938895,66.96008181109225
187.10923250000002,0.30763863933399405,26.089629405276174,3.6584108158057007,64.89455503622204
187.137789,0.3075873108380039,26.083342736939624,4.156923548997129,73.73761866033983
187.1659455,0.3075366967686607,26.077144483564958,4.0551319977979325,71.93219820887235
187.19428499999998,0.30748574916548116,26.070906300281848,4.012348423060183,71.17348811989832
187.2229065,0.30743428992357785,26.064606402036986,3.8203993695370015,67.76877939645023
187.2512155,0.3073833879018828,26.058375642457296,4.3351476296257045,76.89995112109096
187.279219,0.30733303065143586,26.052212467757936,4.114483947235263,72.98587251487892
187.307566,0.3072820510864256,26.045974041331853,3.9966098771272045,70.89514002409258
187.33574149999998,0.30723137533342326,26.039773702678545,4.273389733489276,75.80510913254719
187.3641225,0.3071803253078452,26.03352848770303,3.796532339336455,67.34639537968297
187.39272499999998,0.3071288721105245,26.027234881845263,4.05061799859037,71.85381432182237
187.421053,0.3070779079982908,26.021002020840605,4.045415614848837,71.76174002849667
187.44890800000002,0.3070277902591659,26.01487356450869,4.512064257017854,80.03986432597256
187.4769995,0.30697724238009994,26.008693407991164,3.8235111905980967,67.82576456604139
187.5054685,0.30692601047977947,26.002430540550396,4.154398898317434,73.69564232260312
187.53367450000002,0.30687524713954667,25.996225865624684,4.104110020134107,72.80377158962806
187.561957,0.30682434138269354,25.990004696076976,4.108966079707929,72.89012810089757
187.590407,0.3067731293431205,25.983747017797707,3.9560229552387156,70.17723315099194
187.618895,0.3067218440644519,25.977481316806145,4.060487200861054,72.03057262299559
187.64757400000002,0.30667021003748646,25.971173944439734,3.75893657827316,66.6814463559076
187.67614600000002,0.30661876374979224,25.964890439693914,4.158799391353927,73.77500910694214
187.7043595,0.30656795815409144,25.958686102276626,4.108613060591841,72.8849421366746
187.7326225,0.30651705860809675,25.95247120332821,4.126954013278403,73.21051700239887
187.760691,0.3064665045613537,25.946299393251167,4.307120220552559,76.4068160987569
187.7891525,0.30641523780600133,25.9400414920994,3.7533180537164843,66.58275470634284
187.817778,0.30636367067464937,25.933747858597147,4.134869409610047,73.3515810395319
187.8460375,0.30631275796961993,25.9275350140877,4.091410822742575,72.58084908864454
187.8743655,0.3062617169535747,25.921307427225997,4.073033974171816,72.2550597173454
187.902949,0.30621021059440157,25.915023992064842,3.8532562906141465,68.35643678301504
187.931521,0.3061587199380889,25.90874340500667,4.077609549201994,72.33665892314694
187.9598605,0.3061076433074609,25.90251423974249,4.0503062751833605,71.85251112841355
187.9883485,0.306056294030031,25.896252747555945,3.899742254646206,69.18170712611328
188.01675999999998,0.3060050776330755,25.890008381707013,4.090748978559385,72.57039418027438
188.0450115,0.30595414468806775,25.88379948862321,4.037129139857803,71.6193816976775
188.073603,0.3059025937135072,25.877516183580397,3.7654546324189027,66.80002645058372
188.102122,0.3058511683692872,25.871249120877742,4.0993200193342805,72.72309018398485
188.1301715,0.30580058465509724,25.865085531111312,4.197612382549045,74.46704131435031
188.1586595,0.30574920510293574,25.858825888528017,3.6763431528992787,65.2197446238478
188.18726600000002,0.3056976066863869,25.85254051376716,4.082453213228039,72.42450887441828
188.215495,0.30564668411191076,25.846338381454952,4.03553312612697,71.59233594917447
188.2437845,0.3055956473387595,25.84012325297713,4.041174305095805,71.69262397420354
188.2721045,0.3055445504517814,25.83390171912675,4.032684856432749,71.54222710021841
188.300833,0.30549271130475675,25.827590743545375,3.6771178469410417,65.2344517135296
