T(K),X,m(mol/kg),cp(J/gK),cpm(J/molK)
181.8958075,0.31694583792748726,27.245185060044292,4.192192186437501,74.32314362457225
181.924124,0.31689555165735495,27.238857052042516,3.664655230152374,64.97065837599234
181.95286,0.3168445183019418,27.232435983527942,3.8215563499149874,67.75255699875017
181.981585,0.3167935023429531,27.226018062625528,3.700009459570596,65.59783918710892
182.0101495,0.3167427692989422,27.2196366834964,4.026669447189954,71.38943564266417
182.038313,0.3166927463674986,27.213345552586855,4.146134263068626,73.50765747365027
182.066668,0.31664238118223204,27.207012308663156,3.900357955506967,69.1504400625366
182.0952135,0.31659167546226785,27.200637186677206,3.984096357108892,70.63526594276355
182.1237855,0.3165409204838489,27.19425681884826,3.8727375715596364,68.6611527339958
182.152121,0.31649058344714953,27.187929926034172,4.1882863387408396,74.25584536955239
182.180323,0.31644048140481207,27.181633495109075,3.963978491199376,70.27920252477831
182.208781,0.3163899223655214,27.175280568000083,3.9241791445279737,69.5737842834285
182.23707050000002,0.3163396604801934,27.168965910740926,4.126244722269401,73.15652043985604
182.26561550000002,0.3162889424047381,27.16259488108835,3.71426939966812,65.85257002308438
182.294123,0.31623828869466564,27.15623288013784,4.198422328180075,74.4366328126364
182.322451,0.3161879516752274,27.149911588590154,3.9072355364601217,69.2741887181598
182.35085149999998,0.3161374835575271,27.143574768024653,4.135649939262964,73.32412519842313
182.379176,0.3160871482147934,27.137255550340033,3.956600443046096,70.14982218155018
182.40743500000002,0.31603692699072683,27.130951586330106,4.1471795732529015,73.52896908285182
182.43571300000002,0.31598666970573763,27.1246440225016,3.866237622081031,68.54810237921129
182.46441099999998,0.3159356636117107,27.11824342668098,3.6800418628724674,65.24705736299475
182.49312049999997,0.3158846346841421,27.11184092061923,3.791089007084828,67.21611834154285
182.5215705,0.31583406462140545,27.105496929713166,3.8665576889017923,68.55438005947192
182.549887,0.3157837294927845,27.09918334242018,3.8719827427612006,68.65076584798588
182.5779175,0.31573390041943766,27.092934145067716,4.1033858772462075,72.75378293579206
182.606337,0.3156833774451115,27.086598852916868,3.5063440702251447,62.16830339144627
182.634909,0.31563258092687274,27.08023020293114,3.95863677764846,70.18776472705173
182.66290099999998,0.3155828131750933,27.07399145210009,4.028809018492651,71.43214354637618
182.6913625,0.31553220825493694,27.06764868636537,3.5114334271806324,62.25908127730149
182.7200685,0.3154811661131617,27.061252069749166,3.782536381096393,67.06603943833667
182.74829749999998,0.3154309696652913,27.054962366048937,3.9310881921767793,69.70013023969638
182.77646099999998,0.315380887244225,27.04868786929392,3.826361424074406,67.84346886020244
182.804377,0.31533124252307404,27.04246911501933,4.163759289853453,73.82592771551842
182.832438,0.31528133749516696,27.03621866224732,3.7152773309438767,65.87426539818594
182.8607275,0.31523102359751226,27.029917922060317,3.9877144791161867,70.70495691281023
182.88933,0.31518015045783276,27.023548090091275,3.492133414590235,61.91814077714158
182.9178945,0.3151293423226238,27.017187341846697,4.10150014841924,72.72288226870945
182.94621899999999,0.31507895851619383,27.01088064787606,3.7930266897931384,67.25359608325427
182.974314,0.31502898041091537,27.00462565336562,4.407499633218088,78.14895017842494
183.00239399999998,0.3149790264529901,26.998374593058504,3.870217803499891,68.62265551101262
183.03105399999998,0.31492803805408504,26.991995026632658,3.8988551969988494,69.13062696030393
183.0593895,0.31487762434197286,26.985688297439104,4.20776339801736,74.60809704333917
183.0872675,0.31482802204087035,26.97948398113079,4.354178167383752,77.20440650295333
183.1155345,0.3147777250003453,26.9731936831718,3.8458289332812634,68.19100861242579
183.144385,0.31472638698589883,26.966774150150332,3.7883691889232516,67.17237941190187
183.1727625,0.31467588795656704,26.96046046588208,4.258728988630316,75.51264875857358
183.200785,0.31462601802961,26.954226348758677,4.076834446319766,72.28763632001127
183.2289375,0.31457591409848085,26.947963892904163,4.093135993800281,72.57689374856882
183.257109,0.31452577367897566,26.941697792886625,4.025493379989862,71.37770402354884
183.2851505,0.31447586196781896,26.935461185152338,4.192893573865398,74.34616059820358
183.31350550000002,0.3144253895292544,26.929155436406315,3.717789807897889,65.92206484379673
183.3421045,0.3143744799800172,26.92279601795085,3.9409078864475773,69.8784925500993
183.37024150000002,0.3143243901003483,26.916539911013484,4.123268302010653,73.11224045357369
183.398539,0.3142740117374767,26.910248695093955,3.770332743327303,66.85431414829759
183.4268555,0.3142235967655226,26.903953832792702,4.086796904901794,72.46596427920763
183.4551565,0.314173206594421,26.897662991934958,3.7743195072073816,66.92539491406426
183.4836905,0.314122398721615,26.89132093998139,3.8707729527864267,68.63588693385736
183.511931,0.31407211063260915,26.885044694788725,4.056276946104287,71.92542058739144
183.5401445,0.31402186780306357,26.87877501720267,3.9029863840509624,69.20749093664523
183.56845700000002,0.3139714458267279,26.872483907599968,3.9781398976891302,70.54031292271263
183.596411,0.3139216594949656,26.86627301415451,4.258728901303864,75.51592928750192
183.624777,0.31387113651850856,26.8599711450078,3.6012917293974693,63.85841635911466
183.6532345,0.3138204476528174,26.8536495166239,4.162940817588105,73.81784217309662
183.68160849999998,0.3137699045951347,26.847347002466666,3.6661282834174074,65.00848296142283
183.710116,0.3137191207782941,26.84101540159546,4.020497965942147,71.29244209809823
183.73832950000002,0.3136688577703631,26.834749656518827,3.9308606992993678,69.70317429554183
183.7665695,0.31361854462113314,26.828478579911025,4.004863766257737,71.01562426362001
183.79479800000001,0.3135682490165742,26.822210608903994,3.9610778759101497,70.23940133653119
183.8231835,0.31351767069848496,26.81590833160354,3.8968345899729946,69.10041534433721
183.851424,0.31346734776599056,26.809638798036243,4.141500645309407,73.43915631672276
183.879626,0.31341709045776683,26.803378357586254,3.959833816007881,70.21795278518347
183.9082855,0.3133660147975258,26.797016915812023,3.726329009337233,66.0775115020845
183.936667,0.31331543151740054,26.790717732364513,4.228362756865503,74.98009498898335
183.96482350000002,0.3132652462248884,26.78446902773201,3.936455447045439,69.80400543741969
183.993197,0.3132146711002533,26.778172707950308,4.02743411190902,71.41751144310552
184.021559,0.31316411339267997,26.77187948327467,3.9525839926489894,70.0904166381613
184.0497535,0.3131138512011822,26.765623961587206,4.172120675077705,73.9836329475581
184.0779175,0.3130636403153859,26.759375739309117,3.9503991142433956,70.05207816827206
184.106394,0.3130128691737073,26.753058727706595,3.8439163000374608,68.1640272544933
184.1349775,0.312961904081657,26.746718523539208,3.8219899886796767,67.77540781103785
184.1634925,0.31291105793977136,26.74039405439867,3.8938092546743786,69.04918227127195
184.19174049999998,0.3128606847430676,26.734129335245093,4.065361656750092,72.09154184338884
184.2201715,0.3128099820302017,26.727824562923168,3.7106811433204756,65.80214235175558
184.24869,0.31275912005276185,26.721500921081944,3.9549288127057074,70.13363352147418
184.277018,0.3127085946199884,26.71522004832948,3.8519086568529284,68.30695301399489
184.30522,0.312658290730652,26.708967633218283,4.043844203952758,71.71080658544344
184.3331815,0.3126084126670341,26.702769048737512,4.060950667139594,72.014368037709
184.3613915,0.3125580881303084,26.696515890520494,3.8076672290567197,67.52299320863692
184.39015799999999,0.3125067675196706,26.690139906320486,3.5575387683288,63.087544678360025
184.41858100000002,0.3124560564212032,26.683840581822086,4.157844851000967,73.73327638583855
184.4466805,0.3124059192539688,26.67761346442397,3.8951319545100573,69.0746482718357
184.47501599999998,0.31235535771911543,26.671334559497744,3.991256032392922,70.77947884935101
184.5033895,0.3123047250642897,26.665047747888188,3.9191553609633245,69.50107460083154
184.53195399999998,0.31225374820620344,26.658719133371243,3.866669306539457,68.5705047458026
184.5603585,0.31220305352824923,26.652426480948776,4.11815639722059,73.0305245237785
184.58885850000001,0.3121521850267395,26.64611318439404,3.820658793109922,67.75496280135077
184.617415,0.31210121227027543,26.63978788532225,4.090779117201201,72.54544725615037
184.6457925,0.31205055562962414,26.633502742246915,3.9974552088858673,70.8906577789424
184.6739105,0.312000358870184,26.627275571180707,4.349812209362075,77.1395611660794
184.7023145,0.31194964813725085,26.620985561619264,3.73589718111986,66.25258684271076
184.7312415,0.3118980001452527,26.61458025017609,3.836887974880065,68.04376510121038
184.75953900000002,0.311847472642086,26.608314830599358,4.294811246828451,76.16484513643141
184.787371,0.3117977729780198,26.602152960743677,4.241853258790212,75.22589542219089
184.81566850000002,0.3117472386509751,26.595888520057493,3.835043672827808,68.01164884051849
184.8440155,0.31169661245622576,26.58961361344086,4.188964464721941,74.28838769985182
184.8723435,0.31164601671189207,26.583343403192146,3.8572554201701346,68.40595661945144
184.9008125,0.3115951656108425,26.57704247586663,4.070940237188133,72.19573163702816
184.9288655,0.3115450540995044,26.570834101225998,4.266258795669757,75.65980988533245
184.9576705,0.31149359568472784,26.564459797608638,3.397792289766102,60.2582011972379
184.986426,0.3114422220524301,26.558096946639946,4.29915003340853,76.24357006067835
185.01458250000002,0.31139191503010755,26.551867120060628,3.9158648398698763,69.44637389311436
185.04281500000002,0.3113414686850066,26.54562095426024,4.229454082954709,75.00797788592074
185.07116200000002,0.31129081417531995,26.539349934641947,3.818634761307046,67.72242990589768
185.09961199999998,0.3112399719960799,26.53305660909549,4.140634262290307,73.43321698499108
185.12777549999998,0.31118963823301565,26.526827131260827,4.107864866352722,72.85227039302158
185.1562485,0.3111387476978775,26.520529670931733,3.8737204679086235,68.69996156087417
185.18455749999998,0.31108814664817885,26.514268955515657,4.2719914274227815,75.76346948879888
185.212771,0.31103771267975383,26.50802982765266,3.950798864038038,70.06734541654369
185.240794,0.3109876156546814,26.50183328690582,4.444171092770907,78.81752034052924
185.26905299999999,0.310937093092156,26.4955850236225,3.7216478003103552,66.00373813690327
185.2975335,0.31088617081360564,26.489288253454383,4.21006590733363,74.66609358544876
185.32554900000002,0.3108360762945082,26.48309474745781,4.134271293476992,73.32207738113506
185.3537545,0.3107856383696571,26.47685969362069,4.012303965933814,71.1591707182275
185.3822805,0.3107346235614149,26.470554254633605,3.8203070381267468,67.75425841212069
185.410616,0.31068394568343083,26.464291384362195,4.1703483551013285,73.96255910899193
185.43879900000002,0.31063353682746936,26.458062673847476,3.93023548318341,69.70427736982559
185.467261,0.3105826251625897,26.451772758880914,3.8744195668893955,68.71456161975364
185.49560050000002,0.31053192883089503,26.44551037042774,4.008629222619396,71.09503746509014
185.52391649999998,0.3104812707477406,26.439253626551782,3.8579335618823913,68.4225744998952
185.55219499999998,0.31043067595831,26.433005617599463,4.019692506950804,71.2916662056109
185.58042799999998,0.31038015877920955,26.42676810751341,3.900263897989681,69.1737292629802
185.6088055,0.3103293792108291,26.42049912032842,3.8892105794477647,68.97789323247106
185.6374195,0.3102781725342807,26.41417833930714,3.6812907850817225,65.29048162049438
185.6656215,0.3102276993062541,26.40794901112601,4.273465152946117,75.79336316032003
185.6938045,0.3101772562478921,26.401724317201317,3.682292083272306,65.30862010684451
185.7218385,0.3101270760594703,26.39553296472208,4.411900229038774,78.2490748930431
185.7502045,0.3100762977116676,26.389268726696347,3.3983047034251928,60.272210013507724
185.77875,0.3100251940775333,26.382965290838328,4.250064832952338,75.37921896923584
185.80651699999999,0.3099754803289391,26.376834187920267,4.1166735608770315,73.01359831596686
185.834635,0.30992513429602025,26.370626006875252,3.922317897681925,69.56669501923554
185.8628865,0.30987454530506453,26.36438877898388,3.9946650441650338,70.85005907378614
185.8911575,0.30982391744671395,26.358147674461044,3.9054659774809726,69.26821128211506
185.9196575,0.3097728754814537,26.35185644810307,3.787763483033556,67.18081126951516
185.947966,0.30972217248073003,26.34560792229449,4.096719436899601,72.66075098882047
185.9762555,0.3096714995130831,26.33936401475956,3.8155225337754937,67.6735486361408
186.004641,0.30962065055737475,26.33309934339995,4.0210979602826935,71.31992096470586
186.032889,0.30957004389412013,26.32686543903113,3.959964357855794,70.23583389720476
186.061434,0.3095189010630937,26.320566416018508,3.7617028428095245,66.71956881540476
186.0898575,0.30946797182116476,26.31429462698623,4.097225451501267,72.6707900511895
186.11773549999998,0.3094180160218196,26.308143613310655,4.294300545096311,76.16644852543351
186.145941,0.3093674693320226,26.301920749510728,3.7868212802731227,67.16566877112874
186.1742615,0.30931671246166564,26.29567292664121,4.153458285668741,73.66881047469344
186.20241800000002,0.30926624544045617,26.289461692576733,3.9097555227921754,69.34651950277605
186.23081050000002,0.3092153512890942,26.283198808531857,3.909086568724671,69.33485769053588
186.259272,0.30916432927833737,26.276921116746085,3.822273653282893,67.79526984503664
186.2874665,0.3091137817745918,26.270702722099905,4.13786456348766,73.39308668103082
186.315508,0.3090635044759555,26.264518470871632,3.934918241694437,69.79364056830592
186.34409549999998,0.3090122440030152,26.25821421291849,3.603496801522807,63.91540758863754
186.372744,0.30896086986447807,26.251896914225107,3.8713592001488193,68.66669991497919
186.40101099999998,0.30891017563488543,26.24566414222994,3.96514641941945,70.33041894877942
186.4292855,0.30885946374913553,26.23943011424796,3.877204977375836,68.77078881579928
186.457766,0.30880837812517214,26.23315106741387,3.7760798685218773,66.97730889540524
186.48569,0.3087582865284838,26.226995099849283,4.406997172878803,78.16827847438336
186.513686,0.3087080616166853,26.220823644326465,3.6951657963207314,65.54249375863115
186.542273,0.3086567721398988,26.214522304310247,3.814659428002954,67.66219548983555
186.570677,0.3086058066673054,26.208261696971995,3.8534556633304913,68.35054107183693
186.59893649999998,0.30855509617929255,26.2020333279903,3.971130021875408,70.43799184262481
186.6274935,0.3085038474768293,26.195739782478505,3.620508044284037,64.21901765394811
186.6560045,0.3084526769373736,26.189456766358827,4.047648657036211,71.79566613639281
186.68402700000001,0.3084023788537754,26.183281781541716,4.085599089918039,72.46902658727029
186.71240849999998,0.3083514320495908,26.177028070293293,3.7114783857698597,65.83318854243193
186.74099999999999,0.3083001038454893,26.170728473870643,3.871901250977439,68.67892852113062
186.7692515,0.3082493816324687,26.164504170122953,4.005300357694176,71.04533997525432
186.797362,0.30819890822801693,26.15831130457809,3.991737265680704,70.80496601299943
186.825663,0.3081480883872914,26.15207684573419,3.818699033432428,67.73583250267167
186.853884,0.30809740780563705,26.145860382940196,4.06571251440291,72.11755193983514
186.882231,0.3080464965145431,26.139616538254522,3.7189148733085196,65.96625367569875
186.9109215,0.307994963759022,26.133297411765337,3.76300729499563,66.74856487660927
186.9394745,0.30794367342984114,26.12700894689571,3.856934684040282,68.41485956302182
186.9675355,0.30789326245851134,26.120829204149345,4.231344002013846,75.05640359984712
186.995753,0.30784256589514314,26.114615359283817,3.706086142510814,65.7394694207079
187.024298,0.3077912763866749,26.108329763742393,3.9139802555755625,69.42735155950484
187.05217599999997,0.307741180913114,26.10219139784982,4.351909340318678,77.19569131380092
187.08029449999998,0.30769064882742647,26.096000432404548,3.714856929210516,65.89562444989484
187.10923250000002,0.30763863933399405,26.089629405276174,3.600924165402764,63.87483068424277
187.137789,0.3075873108380039,26.083342736939624,4.088590359200691,72.52548987527476
187.1659455,0.3075366967686607,26.077144483564958,3.989002278020296,70.7591522727289
187.19428499999998,0.30748574916548116,26.070906300281848,3.947139338303244,70.01676952771842
187.2229065,0.30743428992357785,26.064606402036986,3.7593534942859708,66.68590714860674
187.2512155,0.3073833879018828,26.058375642457296,4.262902315951539,75.61841204447344
187.279219,0.30733303065143586,26.052212467757936,4.047026258339582,71.78925628182816
187.307566,0.3072820510864256,26.045974041331853,3.9317051662551057,69.74380709269117
187.33574149999998,0.30723137533342326,26.039773702678545,4.202458748165993,74.54687353536465
187.3641225,0.3071803253078452,26.03352848770303,3.735958163894183,66.27187473702554
187.39272499999998,0.3071288721105245,26.027234881845263,3.9845107331660246,70.68113914564495
187.421053,0.3070779079982908,26.021002020840605,3.9794119488517734,70.5908991628948
187.44890800000002,0.3070277902591659,26.01487356450869,4.435906862332969,78.68890228492519
187.4769995,0.30697724238009994,26.008693407991164,3.7623126741383115,66.74015608674644
187.5054685,0.30692601047977947,26.002430540550396,4.085997706334527,72.48226106042975
187.53367450000002,0.30687524713954667,25.996225865624684,4.0367925482853,71.60961114548098
187.561957,0.30682434138269354,25.990004696076976,4.041533509441573,71.69392239134913
187.590407,0.3067731293431205,25.983747017797707,3.8919055875668804,69.03983341619623
187.618895,0.3067218440644519,25.977481316806145,3.9940892923977205,70.8527141220332
187.64757400000002,0.30667021003748646,25.971173944439734,3.6990843229048127,65.61970060082014
187.67614600000002,0.30661876374979224,25.964890439693914,4.090244935731263,72.55888755070691
187.7043595,0.30656795815409144,25.958686102276626,4.0411400362826795,71.68800112518609
187.7326225,0.30651705860809675,25.95247120332821,4.0590726940128725,72.0063294921323
187.760691,0.3064665045613537,25.946299393251167,4.2353127777129975,75.13297701402838
187.7891525,0.30641523780600133,25.9400414920994,3.6935399310303816,65.52230844981702
187.817778,0.30636367067464937,25.933747858597147,4.06678709070779,72.14381720527113
187.8460375,0.30631275796961993,25.9275350140877,4.0242636196634765,71.38967048924353
187.8743655,0.3062617169535747,25.921307427225997,4.006276605728297,71.07079322851993
187.902949,0.30621021059440157,25.915023992064842,3.79126687021609,67.25674977102547
187.931521,0.3061587199380889,25.90874340500667,4.010733205512148,71.15027479167307
187.9598605,0.3061076433074609,25.90251423974249,3.9840137883062705,70.67648113773076
187.9883485,0.306056294030031,25.896252747555945,3.836713104117428,68.0635654778814
188.01675999999998,0.3060050776330755,25.890008381707013,4.023557843822969,71.37841511756523
188.0450115,0.30595414468806775,25.88379948862321,3.9710939472285434,70.44790575461138
188.073603,0.3059025937135072,25.877516183580397,3.705315497813119,65.73314444706827
188.102122,0.3058511683692872,25.871249120877742,4.031913257403208,71.52727526741246
188.1301715,0.30580058465509724,25.865085531111312,4.1280592161385865,73.23314498362569
188.1586595,0.30574920510293574,25.858825888528017,3.6181119357382223,64.18670038547609
188.18726600000002,0.3056976066863869,25.85254051376716,4.0153837948133075,71.2346680028951
188.215495,0.30564668411191076,25.846338381454952,3.9694739498815483,70.42041377917191
188.2437845,0.3055956473387595,25.84012325297713,3.9749827185848496,70.51834932933063
188.2721045,0.3055445504517814,25.83390171912675,3.966668021381223,70.37104919422359
188.300833,0.30549271130475675,25.827590743545375,3.6188206574105775,64.20022182105465
