T(K),X,m(mol/kg),cp(J/gK),cpm(J/molK)
181.8958075,0.31694583792748726,27.245185060044292,3.9437538176487497,69.91859351232368
181.924124,0.31689555165735495,27.238857052042516,3.4583902490490384,61.313787325222826
181.95286,0.3168445183019418,27.232435983527942,3.6027101232162235,63.872621681638
181.981585,0.3167935023429531,27.226018062625528,3.490857443755377,61.88976210000367
182.0101495,0.3167427692989422,27.2196366834964,3.791355770798466,67.21752365015828
182.038313,0.3166927463674986,27.213345552586855,3.90123466102347,69.16578262822618
182.066668,0.31664238118223204,27.207012308663156,3.6750910689644867,65.156626029664
182.0952135,0.31659167546226785,27.200637186677206,3.7521012139717853,66.5221529143401
182.1237855,0.3165409204838489,27.19425681884826,3.6496216557809977,64.7054506789007
182.152121,0.31649058344714953,27.187929926034172,3.9398978042572197,69.85206322180878
182.180323,0.31644048140481207,27.181633495109075,3.7335053155679927,66.1930373191175
182.208781,0.3163899223655214,27.175280568000083,3.696860566436102,65.54353664862487
182.23707050000002,0.3163396604801934,27.168965910740926,3.882731978606938,68.83914563342174
182.26561550000002,0.3162889424047381,27.16259488108835,3.5036846941658593,62.118984067763705
182.294123,0.31623828869466564,27.15623288013784,3.9490765304316007,70.01581467202246
182.322451,0.3161879516752274,27.149911588590154,3.6811550287961974,65.26584481176783
182.35085149999998,0.3161374835575271,27.143574768024653,3.891267184198374,68.99127498337687
182.379176,0.3160871482147934,27.137255550340033,3.726512116236351,66.07039706797269
182.40743500000002,0.31603692699072683,27.130951586330106,3.901815900696658,69.17870221478562
182.43571300000002,0.31598666970573763,27.1246440225016,3.6433196694457357,64.59578383775974
182.46441099999998,0.3159356636117107,27.11824342668098,3.4719895781938654,61.5582951535532
182.49312049999997,0.3158846346841421,27.11184092061923,3.574123286512709,63.369309806375334
182.5215705,0.31583406462140545,27.105496929713166,3.6435249983755797,64.59999244593466
182.549887,0.3157837294927845,27.09918334242018,3.6484865901037073,64.68814951848393
182.5779175,0.31573390041943766,27.092934145067716,3.861348558192252,68.46241695179884
182.606337,0.3156833774451115,27.086598852916868,3.3120396890217587,58.72324110462863
182.634909,0.31563258092687274,27.08023020293114,3.728119719610821,66.1006312152146
182.66290099999998,0.3155828131750933,27.07399145210009,3.7926490192476314,67.24494706013174
182.6913625,0.31553220825493694,27.06764868636537,3.3166330515880795,58.80519480376428
182.7200685,0.3154811661131617,27.061252069749166,3.566018066761964,63.22707416602751
182.74829749999998,0.3154309696652913,27.054962366048937,3.7026563378642168,65.64992092916332
182.77646099999998,0.315380887244225,27.04868786929392,3.6062780417602016,63.94127080835645
182.804377,0.31533124252307404,27.04246911501933,3.9166551690578353,69.4446247414202
182.832438,0.31528133749516696,27.03621866224732,3.504021692284669,62.12856655304362
182.8607275,0.31523102359751226,27.029917922060317,3.75463441436247,66.57228492188598
182.88933,0.31518015045783276,27.023548090091275,3.2986690357918698,58.48787245126634
182.9178945,0.3151293423226238,27.017187341846697,3.8592570400159136,68.42771795922846
182.94621899999999,0.31507895851619383,27.01088064787606,3.5754311306264914,63.39544135814169
182.974314,0.31502898041091537,27.00462565336562,4.140717274707689,73.41865795410332
183.00239399999998,0.3149790264529901,26.998374593058504,3.646387615733931,64.65393265150362
183.03105399999998,0.31492803805408504,26.991995026632658,3.672703705491975,65.1207333874643
183.0593895,0.31487762434197286,26.985688297439104,3.956869604010128,70.1594846190562
183.0872675,0.31482802204087035,26.97948398113079,4.0915418066830345,72.54757263568466
183.1155345,0.3147777250003453,26.9731936831718,3.62382989238625,64.25470807169788
183.144385,0.31472638698589883,26.966774150150332,3.570936226214384,63.3170293286949
183.1727625,0.31467588795656704,26.96046046588208,4.003637682608347,70.98955742206711
183.200785,0.31462601802961,26.954226348758677,3.8362646872760746,68.02201811051013
183.2289375,0.31457591409848085,26.947963892904163,3.851232167620028,68.28760838970244
183.257109,0.31452577367897566,26.941697792886625,3.7889708611000184,67.18382447771639
183.2851505,0.31447586196781896,26.935461185152338,3.9429493322132307,69.91428213453506
183.31350550000002,0.3144253895292544,26.929155436406315,3.5058229941992733,62.163571018328454
183.3421045,0.3143744799800172,26.92279601795085,3.7110613474435006,65.80295205885972
183.37024150000002,0.3143243901003483,26.916539911013484,3.8788030576145736,68.7774748206625
183.398539,0.3142740117374767,26.910248695093955,3.5540716011455173,63.0196419000515
183.4268555,0.3142235967655226,26.903953832792702,3.845188673509267,68.1818332413639
183.4551565,0.314173206594421,26.897662991934958,3.5576787038220004,63.08396832222958
183.4836905,0.314122398721615,26.89132093998139,3.6463853349656756,64.65708390046942
183.511931,0.31407211063260915,26.885044694788725,3.817018868137946,67.68292479252528
183.5401445,0.31402186780306357,26.87877501720267,3.675960986671959,65.1818919246425
183.56845700000002,0.3139714458267279,26.872483907599968,3.745071795533158,66.40755306981372
183.596411,0.3139216594949656,26.86627301415451,4.003183872259838,70.98459592717624
183.624777,0.31387113651850856,26.8599711450078,3.398310232027298,60.25913089538757
183.6532345,0.3138204476528174,26.8536495166239,3.9149973603809407,69.42127450760326
183.68160849999998,0.3137699045951347,26.847347002466666,3.457898524107232,61.31611332411205
183.710116,0.3137191207782941,26.84101540159546,3.7838882317786418,67.09682107911205
183.73832950000002,0.3136688577703631,26.834749656518827,3.7013912573626557,65.6341548795991
183.7665695,0.31361854462113314,26.828478579911025,3.769443534048888,66.8410715870829
183.79479800000001,0.3135682490165742,26.822210608903994,3.7291297954551386,66.12640613100922
183.8231835,0.31351767069848496,26.81590833160354,3.6699950129419836,65.07799442102949
183.851424,0.31346734776599056,26.809638798036243,3.895057346522051,69.0691007516339
183.879626,0.31341709045776683,26.803378357586254,3.727892919649725,66.10504914675519
183.9082855,0.3133660147975258,26.797016915812023,3.5130369624317943,62.295288395273005
183.936667,0.31331543151740054,26.790717732364513,3.97487767380701,70.48513164290904
183.96482350000002,0.3132652462248884,26.78446902773201,3.7062918402639875,65.72258196511102
183.993197,0.3132146711002533,26.778172707950308,3.7899613060457953,67.20646382347748
184.021559,0.31316411339267997,26.77187948327467,3.721068071686396,65.98498905235544
184.0497535,0.3131138512011822,26.765623961587206,3.9230112328939173,69.56621001816187
184.0779175,0.3130636403153859,26.759375739309117,3.7189962685986453,65.94863196886917
184.106394,0.3130128691737073,26.753058727706595,3.6210007210614945,64.21107344001487
184.1349775,0.312961904081657,26.746718523539208,3.600797106776796,63.85299100192284
184.1634925,0.31291105793977136,26.74039405439867,3.6668395758040035,65.02431363972333
184.19174049999998,0.3128606847430676,26.734129335245093,3.8246369191475984,67.82274143671552
184.2201715,0.3128099820302017,26.727824562923168,3.4982990939018523,62.035935202979594
184.24869,0.31275912005276185,26.721500921081944,3.7229758366475134,66.02035973388574
184.277018,0.3127085946199884,26.71522004832948,3.6281659196011202,64.33926166869479
184.30522,0.312658290730652,26.708967633218283,3.804715722607223,67.47026332760015
184.3331815,0.3126084126670341,26.702769048737512,3.8204227744917723,67.74899630477054
184.3613915,0.3125580881303084,26.696515890520494,3.587370467094221,63.616376409677954
184.39015799999999,0.3125067675196706,26.690139906320486,3.357220074525115,59.53519701099015
184.41858100000002,0.3124560564212032,26.683840581822086,3.909470887361119,69.3287286539302
184.4466805,0.3124059192539688,26.67761346442397,3.6677434683902908,65.04223553634374
184.47501599999998,0.31235535771911543,26.671334559497744,3.7561462145102396,66.61012708463218
184.5033895,0.3123047250642897,26.665047747888188,3.6897819098979494,65.43343760620463
184.53195399999998,0.31225374820620344,26.658719133371243,3.6414628374971794,64.57675197565182
184.5603585,0.31220305352824923,26.652426480948776,3.8727995906615833,68.67941821548554
184.58885850000001,0.3121521850267395,26.64611318439404,3.5990696010769243,63.82533488208916
184.617415,0.31210121227027543,26.63978788532225,3.8475487429137463,68.23202534227381
184.6457925,0.31205055562962414,26.633502742246915,3.7616589050259535,66.7090586842695
184.6739105,0.312000358870184,26.627275571180707,4.085796312187088,72.45750376481655
184.7023145,0.31194964813725085,26.620985561619264,3.520961909424147,62.44091402003598
184.7312415,0.3118980001452527,26.61458025017609,3.613841158158672,64.088229963639
184.75953900000002,0.311847472642086,26.608314830599358,4.035099406144177,71.55907529254765
184.787371,0.3117977729780198,26.602152960743677,3.9863467487117696,70.69469058453659
184.81566850000002,0.3117472386509751,26.595888520057493,3.612049608053862,64.05701485958589
184.8440155,0.31169661245622576,26.58961361344086,3.9376252778312066,69.83106104617639
184.8723435,0.31164601671189207,26.583343403192146,3.6324206189098955,64.4186552908626
184.9008125,0.3115951656108425,26.57704247586663,3.828978802693857,67.90468785513148
184.9288655,0.3115450540995044,26.570834101225998,4.008640443149797,71.09108667650685
184.9576705,0.31149359568472784,26.564459797608638,3.2096175886646487,56.92101397912751
184.986426,0.3114422220524301,26.558096946639946,4.038835367730869,71.62700183296262
185.01458250000002,0.31139191503010755,26.551867120060628,3.68618063826577,65.3730119170993
185.04281500000002,0.3113414686850066,26.54562095426024,3.9746511288612827,70.48913125204142
185.07116200000002,0.31129081417531995,26.539349934641947,3.596664676992821,63.78585193607084
185.09961199999998,0.3112399719960799,26.53305660909549,3.892872308255355,69.03921447745968
185.12777549999998,0.31118963823301565,26.526827131260827,3.862692392847141,68.50417913056162
185.1562485,0.3111387476978775,26.520529670931733,3.6472468426109854,64.68347934916221
185.18455749999998,0.31108814664817885,26.514268955515657,4.013624384450515,71.18134803333761
185.212771,0.31103771267975383,26.50802982765266,3.718094673097127,65.9403408567952
185.240794,0.3109876156546814,26.50183328690582,4.171965757835991,73.98994978233623
185.26905299999999,0.310937093092156,26.4955850236225,3.5072111561204253,62.20068613695633
185.2975335,0.31088617081360564,26.489288253454383,3.9565238797381235,70.16949111485226
185.32554900000002,0.3108360762945082,26.48309474745781,3.8867606884491988,68.93243034390915
185.3537545,0.3107856383696571,26.47685969362069,3.774518288564344,66.94198484349145
185.3822805,0.3107346235614149,26.470554254633605,3.597848164990773,63.80888548107098
185.410616,0.31068394568343083,26.464291384362195,3.9198541088356107,69.51995769579646
185.43879900000002,0.31063353682746936,26.458062673847476,3.6989176006615248,65.60176343321886
185.467261,0.3105826251625897,26.451772758880914,3.647534169188977,64.69064774781732
185.49560050000002,0.31053192883089503,26.44551037042774,3.7709746167393265,66.88011456489879
185.52391649999998,0.3104812707477406,26.439253626551782,3.632301806096953,64.42087115997596
185.55219499999998,0.31043067595831,26.433005617599463,3.7810876217942915,67.05986494265564
185.58042799999998,0.31038015877920955,26.42676810751341,3.6711805390395527,65.11078617370922
185.6088055,0.3103293792108291,26.42049912032842,3.660978667751068,64.93003927453678
185.6374195,0.3102781725342807,26.41417833930714,3.469659079155659,61.53703294915483
185.6656215,0.3102276993062541,26.40794901112601,4.014427585077196,71.1991222455158
185.6938045,0.3101772562478921,26.401724317201317,3.4705149510382927,61.55257035206863
185.7218385,0.3101270760594703,26.39553296472208,4.141722816969424,73.45723204667186
185.7502045,0.3100762977116676,26.389268726696347,3.2091806754290357,56.917913054057394
185.77875,0.3100251940775333,26.382965290838328,3.992767887397369,70.8157961600758
185.80651699999999,0.3099754803289391,26.376834187920267,3.8700154259203647,68.63885309491154
185.834635,0.30992513429602025,26.370626006875252,3.6911752017448185,65.46712077419953
185.8628865,0.30987454530506453,26.36438877898388,3.7577017138059725,66.6472371178417
185.8911575,0.30982391744671395,26.358147674461044,3.6756054493633545,65.19135394450757
185.9196575,0.3097728754814537,26.35185644810307,3.567285686569338,63.27035664379006
185.947966,0.30972217248073003,26.34560792229449,3.8514924295913286,68.31132487160386
185.9762555,0.3096714995130831,26.33936401475956,3.59275778552158,63.72250893137412
186.004641,0.30962065055737475,26.33309934339995,3.7818541500854863,67.07658996329937
186.032889,0.30957004389412013,26.32686543903113,3.725578001752646,66.078644668374
186.061434,0.3095189010630937,26.320566416018508,3.543143609747252,62.84308563747003
186.0898575,0.30946797182116476,26.31429462698623,3.8517913991705837,68.31762796639367
186.11773549999998,0.3094180160218196,26.308143613310655,4.033067908214356,71.5330601583912
186.145941,0.3093674693320226,26.301920749510728,3.5661531269916633,63.25174651426158
186.1742615,0.30931671246166564,26.29567292664121,3.9034262596952507,69.23405739252087
186.20241800000002,0.30926624544045617,26.289461692576733,3.679186182534223,65.25695913059157
186.23081050000002,0.3092153512890942,26.283198808531857,3.678537204824427,65.245639645441
186.259272,0.30916432927833737,26.276921116746085,3.598635557622529,63.828624225641384
186.2874665,0.3091137817745918,26.270702722099905,3.888946221035457,68.97803509976427
186.315508,0.3090635044759555,26.264518470871632,3.702202134379733,65.66595522626342
186.34409549999998,0.3090122440030152,26.25821421291849,3.397260070500636,60.257376112805574
186.372744,0.30896086986447807,26.251896914225107,3.643659794777614,64.62797193054347
186.40101099999998,0.30891017563488543,26.24566414222994,3.7299105357379307,66.15800348132491
186.4292855,0.30885946374913553,26.23943011424796,3.648970639870912,64.72254903568627
186.457766,0.30880837812517214,26.23315106741387,3.5559014801586093,63.0719476628655
186.48569,0.3087582865284838,26.226995099849283,4.136312888391463,73.36706719640473
186.513686,0.3087080616166853,26.220823644326465,3.481393724193374,61.75074110787653
186.542273,0.3086567721398988,26.214522304310247,3.5912938762617412,63.700268111296005
186.570677,0.3086058066673054,26.208261696971995,3.626952480273101,64.33294843056456
186.59893649999998,0.30855509617929255,26.2020333279903,3.735179177726112,66.25280940238841
186.6274935,0.3085038474768293,26.195739782478505,3.4125722466100923,60.53074172737121
186.6560045,0.3084526769373736,26.189456766358827,3.8055079361989845,67.50066530398745
186.68402700000001,0.3084023788537754,26.183281781541716,3.8403887220162662,68.1195649098387
186.71240849999998,0.3083514320495908,26.177028070293293,3.4961630762551104,62.01398446954701
186.74099999999999,0.3083001038454893,26.170728473870643,3.6437179238630493,64.63146310381224
186.7692515,0.3082493816324687,26.164504170122953,3.766411246412594,66.8079653437156
186.797362,0.30819890822801693,26.15831130457809,3.75389928607683,66.58622391109883
186.825663,0.3081480883872914,26.15207684573419,3.59466973246865,63.7620154846457
186.853884,0.30809740780563705,26.145860382940196,3.821888339348376,67.79260211950452
186.882231,0.3080464965145431,26.139616538254522,3.5027997583497315,62.13279553476499
186.9109215,0.307994963759022,26.133297411765337,3.5433300926817184,62.85191072713088
186.9394745,0.30794367342984114,26.12700894689571,3.6297087928095104,64.38429417596396
186.9675355,0.30789326245851134,26.120829204149345,3.9741317873506974,70.49392326608563
186.995753,0.30784256589514314,26.114615359283817,3.4908596214713716,61.92172834445431
187.024298,0.3077912763866749,26.108329763742393,3.682087765244425,65.31397325942412
187.05217599999997,0.307741180913114,26.10219139784982,4.0849491186633795,72.46025744962552
187.08029449999998,0.30769064882742647,26.096000432404548,3.4988258252575064,62.063577949355974
187.10923250000002,0.30763863933399405,26.089629405276174,3.393972223952193,60.20382301711741
187.137789,0.3075873108380039,26.083342736939624,3.8425908759467524,68.16182624927524
187.1659455,0.3075366967686607,26.077144483564958,3.7509352868142365,66.53618690249597
187.19428499999998,0.30748574916548116,26.070906300281848,3.712386633171717,65.85258259575463
187.2229065,0.30743428992357785,26.064606402036986,3.5395883433908573,62.78756705652275
187.2512155,0.3073833879018828,26.058375642457296,4.0028191867223075,71.00487136861067
187.279219,0.30733303065143586,26.052212467757936,3.804178578321741,67.48143784296263
187.307566,0.3072820510864256,26.045974041331853,3.698048207117728,65.59900853968473
187.33574149999998,0.30723137533342326,26.039773702678545,3.9471072009999424,70.01722538546795
187.3641225,0.3071803253078452,26.03352848770303,3.51789113229769,62.403600423382265
187.39272499999998,0.3071288721105245,26.027234881845263,3.746524577638384,66.45950851140634
187.421053,0.3070779079982908,26.021002020840605,3.7417987512601383,66.37587204668887
187.44890800000002,0.3070277902591659,26.01487356450869,4.161740241465108,73.8254389371143
187.4769995,0.30697724238009994,26.008693407991164,3.5419980148809103,62.83196556124607
187.5054685,0.30692601047977947,26.002430540550396,3.8397534152093886,68.11408851684207
187.53367450000002,0.30687524713954667,25.996225865624684,3.794449649627384,67.31063354651234
187.561957,0.30682434138269354,25.990004696076976,3.7987762564760574,67.3875818368571
187.590407,0.3067731293431205,25.983747017797707,3.6610830639460863,64.94519437089288
187.618895,0.3067218440644519,25.977481316806145,3.7550568219275164,66.61242351852952
187.64757400000002,0.30667021003748646,25.971173944439734,3.4836162035787526,61.79741588250508
187.67614600000002,0.30661876374979224,25.964890439693914,3.8434488954918984,68.18084994829952
187.7043595,0.30656795815409144,25.958686102276626,3.798237148778596,67.37901348398532
187.7326225,0.30651705860809675,25.95247120332821,3.81469994465697,67.67125445517274
187.760691,0.3064665045613537,25.946299393251167,3.976805983486082,70.54715630892599
187.7891525,0.30641523780600133,25.9400414920994,3.478338689358237,61.704701926285466
187.817778,0.30636367067464937,25.933747858597147,3.8216907426663673,67.79586740205129
187.8460375,0.30631275796961993,25.9275350140877,3.7825336885787255,67.10142753139998
187.8743655,0.3062617169535747,25.921307427225997,3.76595007932718,66.80743386866934
187.902949,0.30621021059440157,25.915023992064842,3.5681049567874554,63.29787652794052
187.931521,0.3061587199380889,25.90874340500667,3.7699783682197814,66.8792919182089
187.9598605,0.3061076433074609,25.90251423974249,3.745360835553211,66.44277317135193
187.9883485,0.306056294030031,25.896252747555945,3.6098081622138287,64.03825554424665
188.01675999999998,0.3060050776330755,25.890008381707013,3.7816697587718773,67.08729049181238
188.0450115,0.30595414468806775,25.88379948862321,3.733367253765457,66.23059235961327
188.073603,0.3059025937135072,25.877516183580397,3.4888146132367037,61.892369234490864
188.102122,0.3058511683692872,25.871249120877742,3.7892489144423402,67.22234156759204
188.1301715,0.30580058465509724,25.865085531111312,3.877667817065487,68.7911181930978
188.1586595,0.30574920510293574,25.858825888528017,3.408479553956229,60.467741127299035
188.18726600000002,0.3056976066863869,25.85254051376716,3.7739338885293225,66.95124086557225
188.215495,0.30564668411191076,25.846338381454952,3.7316609153800107,66.20149396684299
188.2437845,0.3055956473387595,25.84012325297713,3.7366930071566737,66.290960607988
188.2721045,0.3055445504517814,25.83390171912675,3.729007415200234,66.15480873272215
188.300833,0.30549271130475675,25.827590743545375,3.4089507750899353,60.4769942079502
