T(K),X,m(mol/kg),cp(J/gK),cpm(J/molK)
181.8958075,0.31694583792748726,27.245185060044292,3.887733401157629,68.92541064388365
181.924124,0.31689555165735495,27.238857052042516,3.411879518016377,60.489198754959126
181.95286,0.3168445183019418,27.232435983527942,3.5533624446468934,62.99773430621073
181.981585,0.3167935023429531,27.226018062625528,3.4436957146985576,61.053627070550455
182.0101495,0.3167427692989422,27.2196366834964,3.7382948437680996,66.27679839692998
182.038313,0.3166927463674986,27.213345552586855,3.846012201741537,68.1867324180324
182.066668,0.31664238118223204,27.207012308663156,3.6242955945462407,64.25606012025878
182.0952135,0.31659167546226785,27.200637186677206,3.6997885836574653,65.59468625108427
182.1237855,0.3165409204838489,27.19425681884826,3.599311204182047,63.813478646837424
182.152121,0.31649058344714953,27.187929926034172,3.8838886249133373,68.85905352183558
182.180323,0.31644048140481207,27.181633495109075,3.681535874003595,65.27164712567604
182.208781,0.3163899223655214,27.175280568000083,3.645602455690349,64.6347553192164
182.23707050000002,0.3163396604801934,27.168965910740926,3.8278222422936694,67.86561994182402
182.26561550000002,0.3162889424047381,27.16259488108835,3.4561999076287933,61.27709703858301
182.294123,0.31623828869466564,27.15623288013784,3.8928514976064283,69.01896352267656
182.322451,0.3161879516752274,27.149911588590154,3.6301760907940026,64.36200255837379
182.35085149999998,0.3161374835575271,27.143574768024653,3.8361612688392785,68.0142597387829
182.379176,0.3160871482147934,27.137255550340033,3.6746294543104954,65.15052669925731
182.40743500000002,0.31603692699072683,27.130951586330106,3.8464887980604927,68.1977596856953
182.43571300000002,0.31598666970573763,27.1246440225016,3.5930538565966006,63.70457475488341
182.46441099999998,0.3159356636117107,27.11824342668098,3.4250758277266673,60.72651543965146
182.49312049999997,0.3158846346841421,27.11184092061923,3.525199643638603,62.50189219550422
182.5215705,0.31583406462140545,27.105496929713166,3.59323331325646,63.70831680757979
182.549887,0.3157837294927845,27.09918334242018,3.5980903988191235,63.79461838537742
182.5779175,0.31573390041943766,27.092934145067716,3.8067715156623727,67.49475599465751
182.606337,0.3156833774451115,27.086598852916868,3.268225956003951,57.94641333404763
182.634909,0.31563258092687274,27.08023020293114,3.676140382994492,65.17902267823175
182.66290099999998,0.3155828131750933,27.07399145210009,3.739397254712461,66.30077530343792
182.6913625,0.31553220825493694,27.06764868636537,3.2727074766991087,58.02637726560568
182.7200685,0.3154811661131617,27.061252069749166,3.5171953096076547,62.36142513402795
182.74829749999998,0.3154309696652913,27.054962366048937,3.6511471942470752,64.73663843761433
182.77646099999998,0.315380887244225,27.04868786929392,3.5566513967257576,63.061363404459016
182.804377,0.31533124252307404,27.04246911501933,3.8609356124102465,68.4566838747544
182.832438,0.31528133749516696,27.03621866224732,3.456385616898405,61.2839481859605
182.8607275,0.31523102359751226,27.029917922060317,3.7020771448615513,65.64040790436665
182.88933,0.31518015045783276,27.023548090091275,3.2550447150819815,57.71438057385507
182.9178945,0.3151293423226238,27.017187341846697,3.804633594002447,67.45920051687764
182.94621899999999,0.31507895851619383,27.01088064787606,3.5263654653246745,62.52546529268339
182.974314,0.31502898041091537,27.00462565336562,4.080560468375456,72.35202343290693
183.00239399999998,0.3149790264529901,26.998374593058504,3.5959161028072435,63.75902455574849
183.03105399999998,0.31492803805408504,26.991995026632658,3.6217087613281946,64.2165416994628
183.0593895,0.31487762434197286,26.985688297439104,3.9002955132050534,69.15636613123615
183.0872675,0.31482802204087035,26.97948398113079,4.032319882212753,71.49750225387527
183.1155345,0.3147777250003453,26.9731936831718,3.573771285123749,63.3671108909125
183.144385,0.31472638698589883,26.966774150150332,3.521907224821102,62.447685682514454
183.1727625,0.31467588795656704,26.96046046588208,3.9461170939950687,69.96964466970907
183.200785,0.31462601802961,26.954226348758677,3.782018565139248,67.06016302406245
183.2289375,0.31457591409848085,26.947963892904163,3.7966852264206072,67.32041659306141
183.257109,0.31452577367897566,26.941697792886625,3.735637351940491,66.23814575663113
183.2851505,0.31447586196781896,26.935461185152338,3.8865893561515077,68.91493699071522
183.31350550000002,0.3144253895292544,26.929155436406315,3.4580265558167196,61.316067508672326
183.3421045,0.3143744799800172,26.92279601795085,3.659233206295999,64.88395763437296
183.37024150000002,0.3143243901003483,26.916539911013484,3.8236785417203727,67.80002766812616
183.398539,0.3142740117374767,26.910248695093955,3.5053068337917455,62.154960902914716
183.4268555,0.3142235967655226,26.903953832792702,3.79070838603792,67.21580369360628
183.4551565,0.314173206594421,26.897662991934958,3.5088283265889886,62.21776428683267
183.4836905,0.314122398721615,26.89132093998139,3.5957881270242704,63.75990282428792
183.511931,0.31407211063260915,26.885044694788725,3.7630685172249336,66.72628358389613
183.5401445,0.31402186780306357,26.87877501720267,3.6247689853036222,64.27415881411837
183.56845700000002,0.3139714458267279,26.872483907599968,3.6925172234764534,65.4756562402043
183.596411,0.3139216594949656,26.86627301415451,3.9455609735533392,69.96282467925094
183.624777,0.31387113651850856,26.8599711450078,3.3525398943859437,59.44752731044615
183.6532345,0.3138204476528174,26.8536495166239,3.859088541601384,68.42989160268253
183.68160849999998,0.3137699045951347,26.847347002466666,3.4109447548505454,60.483520170592456
183.710116,0.3137191207782941,26.84101540159546,3.730535056427562,66.15074967286145
183.73832950000002,0.3136688577703631,26.834749656518827,3.64964814790634,64.71663089365126
183.7665695,0.31361854462113314,26.828478579911025,3.7163585797267995,65.89975088550219
183.79479800000001,0.3135682490165742,26.822210608903994,3.6768277773118707,65.19896603562069
183.8231835,0.31351767069848496,26.81590833160354,3.6188449122413195,64.17097793836552
183.851424,0.31346734776599056,26.809638798036243,3.839486798754314,68.08369606535362
183.879626,0.31341709045776683,26.803378357586254,3.6755925214508323,65.17762969886572
183.9082855,0.3133660147975258,26.797016915812023,3.4649416969535913,61.44243416531412
183.936667,0.31331543151740054,26.790717732364513,3.917719272725686,69.47156147664613
183.96482350000002,0.3132652462248884,26.78446902773201,3.6543922034421703,64.80226098608676
183.993197,0.3132146711002533,26.778172707950308,3.736413516486939,66.25691387000602
184.021559,0.31316411339267997,26.77187948327467,3.668863501273747,65.05925538105488
184.0497535,0.3131138512011822,26.765623961587206,3.8668394959294234,68.57012445562466
184.0779175,0.3130636403153859,26.759375739309117,3.6668171955611015,65.02334508076848
184.106394,0.3130128691737073,26.753058727706595,3.5707354434492657,63.319721109299124
184.1349775,0.312961904081657,26.746718523539208,3.550920280467301,62.968524466568546
184.1634925,0.31291105793977136,26.74039405439867,3.6156601384102,64.11674522277954
184.19174049999998,0.3128606847430676,26.734129335245093,3.770355850866167,66.86016879602137
184.2201715,0.3128099820302017,26.727824562923168,3.450409023934426,61.18669241452156
184.24869,0.31275912005276185,26.721500921081944,3.6706727145966527,65.09285682102434
184.277018,0.3127085946199884,26.71522004832948,3.577714125905617,63.44458616923834
184.30522,0.312658290730652,26.708967633218283,3.7507945944591845,66.51406239688347
184.3331815,0.3126084126670341,26.702769048737512,3.7661860928182795,66.78719679639825
184.3613915,0.3125580881303084,26.696515890520494,3.537695707042876,62.735472621660065
184.39015799999999,0.3125067675196706,26.690139906320486,3.3120501729821092,58.73417743895323
184.41858100000002,0.3124560564212032,26.683840581822086,3.8534649935971803,68.33554632218969
184.4466805,0.3124059192539688,26.67761346442397,3.6164695940711384,64.13296599798345
184.47501599999998,0.31235535771911543,26.671334559497744,3.703131255575414,65.669979137677
184.5033895,0.3123047250642897,26.665047747888188,3.6380604454415404,64.51622534270162
184.53195399999998,0.31225374820620344,26.658719133371243,3.5906809866356824,63.67619988043907
184.5603585,0.31220305352824923,26.652426480948776,3.817474036240415,67.69828640085272
184.58885850000001,0.3121521850267395,26.64611318439404,3.549103410716541,62.939242312059555
184.617415,0.31210121227027543,26.63978788532225,3.7927026781249293,67.25939098917124
184.6457925,0.31205055562962414,26.633502742246915,3.7084891502305517,65.76614908442893
184.6739105,0.312000358870184,26.627275571180707,4.026263315768324,71.40174572340933
184.7023145,0.31194964813725085,26.620985561619264,3.472496112862883,61.58141916782119
184.7312415,0.3118980001452527,26.61458025017609,3.563546287723456,63.196295569907676
184.75953900000002,0.311847472642086,26.608314830599358,3.9765369322648967,70.52051934736716
184.787371,0.3117977729780198,26.602152960743677,3.9287325356548672,69.67294831722239
184.81566850000002,0.3117472386509751,26.595888520057493,3.561766632663661,63.165283667807
184.8440155,0.31169661245622576,26.58961361344086,3.8809507552949967,68.82597758501758
184.8723435,0.31164601671189207,26.583343403192146,3.581722575490448,63.51955793249041
184.9008125,0.3115951656108425,26.57704247586663,3.774418871386323,66.93709955137045
184.9288655,0.3115450540995044,26.570834101225998,3.9505500303256493,70.06088438430261
184.9576705,0.31149359568472784,26.564459797608638,3.1671860384177175,56.168510978990824
184.986426,0.3114422220524301,26.558096946639946,3.9801369627246106,70.58601095807647
185.01458250000002,0.31139191503010755,26.551867120060628,3.6343891026089463,64.45450872641159
185.04281500000002,0.3113414686850066,26.54562095426024,3.917195560779858,69.47017563849239
185.07116200000002,0.31129081417531995,26.539349934641947,3.5466125991592428,62.89819219781171
185.09961199999998,0.3112399719960799,26.53305660909549,3.8370044166587327,68.04840999045834
185.12777549999998,0.31118963823301565,26.526827131260827,3.8074084037228286,67.52372717921365
185.1562485,0.3111387476978775,26.520529670931733,3.5961792604365286,63.777801987706624
185.18455749999998,0.31108814664817885,26.514268955515657,3.9553651492699795,70.14812456788134
185.212771,0.31103771267975383,26.50802982765266,3.665622159454593,65.00974178941875
185.240794,0.3109876156546814,26.50183328690582,4.1105861234889645,72.9013799506053
185.26905299999999,0.310937093092156,26.4955850236225,3.458857795172669,61.34313519573919
185.2975335,0.31088617081360564,26.489288253454383,3.8993526382230317,69.15555134209804
185.32554900000002,0.3108360762945082,26.48309474745781,3.830949473591527,67.94260797279722
185.3537545,0.3107856383696571,26.47685969362069,3.720899949548138,65.99105077367105
185.3822805,0.3107346235614149,26.470554254633605,3.547685870068457,62.91924256525494
185.410616,0.31068394568343083,26.464291384362195,3.8633701121286355,68.51819463203671
185.43879900000002,0.31063353682746936,26.458062673847476,3.64675768597471,64.67668676122992
185.467261,0.3105826251625897,26.451772758880914,3.5963737363731636,63.78329461981372
185.49560050000002,0.31053192883089503,26.44551037042774,3.7173858330615133,65.92969077369736
185.52391649999998,0.3104812707477406,26.439253626551782,3.5814240572423555,63.51852628919179
185.55219499999998,0.31043067595831,26.433005617599463,3.727284559457654,66.10563524615259
185.58042799999998,0.31038015877920955,26.42676810751341,3.6195244875085173,64.19463233979963
185.6088055,0.3103293792108291,26.42049912032842,3.609514609233267,64.01728789190155
185.6374195,0.3102781725342807,26.41417833930714,3.4219382042879642,60.69066707224843
185.6656215,0.3102276993062541,26.40794901112601,3.9560171531093875,70.16316596085176
185.6938045,0.3101772562478921,26.401724317201317,3.4227612839644017,60.70561795635699
185.7218385,0.3101270760594703,26.39553296472208,4.080800459345946,72.37671846366663
185.7502045,0.3100762977116676,26.389268726696347,3.1665350612740273,56.16155197498317
185.77875,0.3100251940775333,26.382965290838328,3.9347499486922137,69.78678905602143
185.80651699999999,0.3099754803289391,26.376834187920267,3.8143964347062145,67.65239093725042
185.834635,0.30992513429602025,26.370626006875252,3.639054789914833,64.54270697383001
185.8628865,0.30987454530506453,26.36438877898388,3.7042688059793907,65.69954197090384
185.8911575,0.30982391744671395,26.358147674461044,3.6237741538089665,64.27206258409407
185.9196575,0.3097728754814537,26.35185644810307,3.5175701050131702,62.38858746347044
185.947966,0.30972217248073003,26.34560792229449,3.7961961436307052,67.33057192362259
185.9762555,0.3096714995130831,26.33936401475956,3.542526518758444,62.83158821363264
186.004641,0.30962065055737475,26.33309934339995,3.727907016414088,66.11976042377579
186.032889,0.30957004389412013,26.32686543903113,3.672726176354766,65.14123925399305
186.061434,0.3095189010630937,26.320566416018508,3.4938606454303094,61.96897668560089
186.0898575,0.30946797182116476,26.31429462698623,3.796448426585689,67.33603259432255
186.11773549999998,0.3094180160218196,26.308143613310655,3.9741625097017583,70.4882765069993
186.145941,0.3093674693320226,26.301920749510728,3.516394621838935,62.36919541710666
186.1742615,0.30931671246166564,26.29567292664121,3.8470464891347143,68.23406405049982
186.20241800000002,0.30926624544045617,26.289461692576733,3.6271950567871842,64.33480336034702
186.23081050000002,0.3092153512890942,26.283198808531857,3.6265505835548857,64.32356106668202
186.259272,0.30916432927833737,26.276921116746085,3.548207359581983,62.93418452715946
186.2874665,0.3091137817745918,26.270702722099905,3.8328175751867968,67.9824842529798
186.315508,0.3090635044759555,26.264518470871632,3.6497269337117806,64.7352026491548
186.34409549999998,0.3090122440030152,26.25821421291849,3.3507557095843863,59.43252587806827
186.372744,0.30896086986447807,26.251896914225107,3.592315811213518,63.717278365425585
186.40101099999998,0.30891017563488543,26.24566414222994,3.676867150199267,65.21716469940117
186.4292855,0.30885946374913553,26.23943011424796,3.597506034357191,63.80971065393325
186.457766,0.30880837812517214,26.23315106741387,3.5062534121927817,62.191326992755315
186.48569,0.3087582865284838,26.226995099849283,4.075276236007062,72.28444112391934
186.513686,0.3087080616166853,26.220823644326465,3.4331902177348383,60.89573805920453
186.542273,0.3086567721398988,26.214522304310247,3.540927134200353,62.80689232982345
186.570677,0.3086058066673054,26.208261696971995,3.5758782331141528,63.427020678139435
186.59893649999998,0.30855509617929255,26.2020333279903,3.6819745756166644,65.30909179336247
186.6274935,0.3085038474768293,26.195739782478505,3.3656847628198374,59.69907166547772
186.6560045,0.3084526769373736,26.189456766358827,3.750907577578294,66.53218472412189
186.68402700000001,0.3084023788537754,26.183281781541716,3.785096188075493,67.1388039433211
186.71240849999998,0.3083514320495908,26.177028070293293,3.447611584895502,61.15279139431633
186.74099999999999,0.3083001038454893,26.170728473870643,3.5922648206912524,63.71879933325917
186.7692515,0.3082493816324687,26.164504170122953,3.7125440938671064,65.85247890716374
186.797362,0.30819890822801693,26.15831130457809,3.700269153422123,65.63493892735589
186.825663,0.3081480883872914,26.15207684573419,3.5441533214659584,62.8659587060525
186.853884,0.30809740780563705,26.145860382940196,3.7669083783077455,66.81736833650791
186.882231,0.3080464965145431,26.139616538254522,3.4540679187026875,61.2683883069167
186.9109215,0.307994963759022,26.133297411765337,3.493795037257994,61.97325341891518
186.9394745,0.30794367342984114,26.12700894689571,3.5784715820417885,63.47544119652937
186.9675355,0.30789326245851134,26.120829204149345,3.9161329546314465,69.46512868100244
186.995753,0.30784256589514314,26.114615359283817,3.442328151042485,61.06086516062116
187.024298,0.3077912763866749,26.108329763742393,3.6297982821289403,64.38644677996575
187.05217599999997,0.307741180913114,26.10219139784982,4.02475220593608,71.39246353905656
187.08029449999998,0.30769064882742647,26.096000432404548,3.4501129292691535,61.19948903258645
187.10923250000002,0.30763863933399405,26.089629405276174,3.3473065900956924,59.376046778451894
187.137789,0.3075873108380039,26.083342736939624,3.7871204042337117,67.17786288264749
187.1659455,0.3075366967686607,26.077144483564958,3.6972535142868437,65.58394961312021
187.19428499999998,0.30748574916548116,26.070906300281848,3.6594521996632694,64.91359926798731
187.2229065,0.30743428992357785,26.064606402036986,3.490033456422206,61.908529584740954
187.2512155,0.3073833879018828,26.058375642457296,3.944172990916263,69.96456317700424
187.279219,0.30733303065143586,26.052212467757936,3.749418807335708,66.51006701848387
187.307566,0.3072820510864256,26.045974041331853,3.6453608535883575,64.66439710129022
187.33574149999998,0.30723137533342326,26.039773702678545,3.8895279305610875,68.99583413599117
187.3641225,0.3071803253078452,26.03352848770303,3.4687191545836997,61.53134248989496
187.39272499999998,0.3071288721105245,26.027234881845263,3.6928610327645037,65.50757219192116
187.421053,0.3070779079982908,26.021002020840605,3.6882193047449174,65.42542475578927
187.44890800000002,0.3070277902591659,26.01487356450869,4.099918356365778,72.72877563316644
187.4769995,0.30697724238009994,26.008693407991164,3.492319219166538,61.95070691334856
187.5054685,0.30692601047977947,26.002430540550396,3.7842277417214754,67.12910843350338
187.53367450000002,0.30687524713954667,25.996225865624684,3.739803701891337,66.34125624479373
187.561957,0.30682434138269354,25.990004696076976,3.7440368759048597,66.41654426083457
187.590407,0.3067731293431205,25.983747017797707,3.6090348478360514,64.02189340970654
187.618895,0.3067218440644519,25.977481316806145,3.7011573432926195,65.65627955892555
187.64757400000002,0.30667021003748646,25.971173944439734,3.4350302551011485,60.93552815186702
187.67614600000002,0.30661876374979224,25.964890439693914,3.787798807988585,67.19364539092307
187.7043595,0.30656795815409144,25.958686102276626,3.743464929045105,66.40737901583279
187.7326225,0.30651705860809675,25.95247120332821,3.759596285488481,66.69373753507399
187.760691,0.3064665045613537,25.946299393251167,3.9185152357693513,69.51309869897149
187.7891525,0.30641523780600133,25.9400414920994,3.429812919177795,60.843869082753464
187.817778,0.30636367067464937,25.933747858597147,3.766423919088948,66.8154473483938
187.8460375,0.30631275796961993,25.9275350140877,3.728025959018215,66.13447078596514
187.8743655,0.3062617169535747,25.921307427225997,3.711758803769421,65.84608813072195
187.902949,0.30621021059440157,25.915023992064842,3.517784133170121,62.40518942408858
187.931521,0.3061587199380889,25.90874340500667,3.715690512751896,65.91622715262388
187.9598605,0.3061076433074609,25.90251423974249,3.691546934441137,65.48811353185502
187.9883485,0.306056294030031,25.896252747555945,3.5586433223728213,63.130587618034895
188.01675999999998,0.3060050776330755,25.890008381707013,3.7271263670446717,66.11968395855442
188.0450115,0.30595414468806775,25.88379948862321,3.6797622150450366,65.27962953528018
188.073603,0.3059025937135072,25.877516183580397,3.439995786321338,61.02631207869452
188.102122,0.3058511683692872,25.871249120877742,3.7345304841668483,66.25162122351485
188.1301715,0.30580058465509724,25.865085531111312,3.8212070113932564,67.7894847011358
188.1586595,0.30574920510293574,25.858825888528017,3.3612095070822092,59.62915227493644
188.18726600000002,0.3056976066863869,25.85254051376716,3.7194893018182276,65.98537004048963
188.215495,0.30564668411191076,25.846338381454952,3.6780364076024608,65.25016891116096
188.2437845,0.3055956473387595,25.84012325297713,3.6829610134004995,65.33772589626369
188.2721045,0.3055445504517814,25.83390171912675,3.6754172785112615,65.20408784432482
