T(K),X,m(mol/kg),cp(J/gK),cpm(J/molK)
181.8994545,0.3169393614645696,27.244370011769423,3.3835282083999805,59.98640703345241
181.92758800000001,0.31688939992095344,27.238082983477597,3.2469974884463393,57.566026301698116
181.956076,0.3168388067523271,27.231717410256444,3.214573217169712,56.9913424989522
181.9844305,0.31678844858242444,27.2253823405077,3.3512014697366066,59.41380462064024
182.01265899999999,0.31673831210579256,27.219076087490052,3.3085605427590323,58.65798862068342
182.0409565,0.3166880509764536,27.212755084306988,3.3261838365668295,58.97060558203659
182.0689415,0.31663834281611913,27.20650453883432,3.471193115974492,61.54168158840619
182.0972125,0.3165881245325482,27.20019077130388,3.1699180640515845,56.20046083844744
182.1258605,0.31653723439168746,27.19379348005463,3.263384657191291,57.85772876115902
182.154604,0.3164861723797997,27.187375540699946,3.1122114341429272,55.17768630678636
182.1829015,0.31643590048263515,27.181057846865425,3.492724024747762,61.9241311347304
182.210894,0.31638616827979155,27.174808890956776,3.263422401542621,57.8589016842077
182.239306,0.31633568857862243,27.168466940054078,3.2724727353365375,58.01952852222529
182.2679925,0.31628471890570253,27.162064382344216,3.137310426962424,55.62332255240156
182.29650750000002,0.3162340516795947,27.155700762550993,3.371310225453084,59.772224662588556
182.32469400000002,0.3161839659131961,27.14941109883925,3.2976624736469677,58.46664294271146
182.3530105,0.3161336468885233,27.143093070795743,3.2882664751318984,58.30022355907102
182.3816665,0.3160827222490607,27.13669994865026,3.109647380521146,55.133509075160276
182.410223,0.3160319720992933,27.13032967919687,3.323894279305467,58.932241821669045
182.4384445,0.31598181500504885,27.12403478013445,3.2647598352403637,57.88396263203758
182.4668185,0.3159313845578591,27.11770650494183,3.2309238767823616,57.284219953451036
182.49498599999998,0.31588131881821035,27.111424918044037,3.3542069275445905,59.47019773120363
182.523539,0.3158305655118,27.105058002727397,3.0096545218071995,53.361428470269836
182.55215700000002,0.3157796942608878,27.098677239325642,3.2945936769826276,58.41359497370867
182.5801605,0.3157299129972614,27.092434111118312,3.3072928931480368,58.63892203772925
182.60827849999998,0.31567992584124327,27.086166075661176,3.2251778433107567,57.183171566246926
182.636992,0.3156288775848695,27.07976593074083,2.99731483814972,53.14326253924029
182.6655945,0.3155780242020205,27.073391167235016,3.277893710828125,58.118177761417
182.6935525,0.3155283143042482,27.067160661675434,3.3247651756757026,58.949393757480735
182.722041,0.31547765871823985,27.06081255698626,3.00986984540325,53.36633153533848
182.75090649999999,0.3154263302511334,27.054381085814814,3.127606654414244,55.454021578468094
182.778994,0.3153763827559303,27.048123576612596,3.4150184444503595,60.550149857541506
182.8066735,0.31532715840961717,27.041957558012957,3.3546349052030804,59.479685321161696
182.835272,0.3152762972369015,27.035587435904905,2.961826780340411,52.51511601535464
182.86414150000002,0.3152249515051736,27.029157584903167,3.2259481650483863,57.198329274185234
182.892317,0.31517483755403686,27.022882915343057,3.3206611138214077,58.87782649204321
182.9204885,0.315124728204783,27.01660974011416,3.233868493773354,57.33909344616399
182.9489575,0.3150740871186053,27.010270929446676,3.1755333395861585,56.304928488551944
182.97738850000002,0.3150235110389058,27.0039411911916,3.2704524275028795,57.988094303766836
183.005686,0.3149731698607717,26.997641779684212,3.265788900584436,57.905573720127435
183.034014,0.31492277182893813,26.991336181186853,3.2792853041935435,58.145046790666676
183.062262,0.3148725135258233,26.985048988809485,3.3320563083622523,59.08090120837696
183.09060499999998,0.3148220835789378,26.978741251281573,3.2468235725750074,57.56980148443637
183.11883749999998,0.3147718476174402,26.972458700387588,3.400734981446995,60.29899690689158
183.147219,0.31472134387660317,26.96614358928024,3.1744109762547126,56.28617218709905
183.175631,0.31467078318337294,26.95982228903634,3.3832313490529136,59.98898647141454
183.2038255,0.3146206068798917,26.95354996877798,3.2837871230297755,58.22588247039417
183.2323135,0.3145699055410582,26.94721294892968,3.2254716210650862,57.192038706191006
183.2607175,0.3145193509763662,26.940895207338876,3.3211624349667392,58.88893972962771
183.2890415,0.3144689360762238,26.934595847401855,3.261272047994161,57.82716587806524
183.31750699999998,0.31441826656211175,26.928265606846608,3.242191473506718,57.48900699789906
183.345759,0.3143679743422617,26.921983427603706,3.3675360917691046,59.711731585902065
183.3740295,0.31431764644131743,26.915697713838345,3.228690962440434,57.2499542692761
183.4026395,0.3142667113401183,26.90933710308678,3.186730678823931,56.50609589083815
183.431166,0.3142159220643815,26.902995643334453,3.2662454982541345,57.916196911727575
183.4592535,0.31416591161870494,26.896752344672308,3.412922719298717,60.51721280685606
183.48749400000003,0.31411562596214987,26.890475606688245,3.188735482058846,56.54213669874226
183.5158105,0.31406520215498174,26.88418254860568,3.3762996509468675,59.86816786073664
183.54420299999998,0.31401464016069736,26.877873173270817,3.1484014335152724,55.82726481341545
183.5723595,0.3139644956063036,26.871616806684802,3.491975930771747,61.919686050395406
183.60054250000002,0.3139143010176407,26.865355113390574,3.1213708239086384,55.348279693352914
183.6290955,0.31386344453909143,26.859011784763762,3.281446811397116,58.18692440634827
183.6574885,0.31381287012127307,26.85270457003073,3.185863171182809,56.492190917097226
183.6858735,0.31376230702956037,26.84639969714133,3.262653397749501,57.854014992851354
183.7142545,0.3137117481267214,26.840096275498297,3.167599721044108,56.168668049450986
183.7426855,0.31366109719433494,26.833782311304486,3.2256377683631507,57.19798011875165
183.770964,0.3136107149963242,26.82750277103099,3.249576882192141,57.62264298295625
183.79916250000002,0.31356047238632384,26.821241546702808,3.282913834898115,58.21395411989378
183.8276315,0.31350974481816213,26.814920816783154,3.128198979087189,55.470649951163054
183.856131,0.31345895987507305,26.80859387350808,3.282998526280974,58.21579643231338
183.884333,0.31340870206842186,26.80233352394487,3.2942910530602845,58.41621042277824
183.9126875,0.3133581694782658,26.79603987001656,3.211463511288727,56.94763197381555
183.941111,0.3133075108667976,26.7897314503307,3.261348183211144,57.83238625410883
183.9692445,0.31325736609420024,26.78348793460129,3.364849400866443,59.667910811181166
183.997702,0.3132066407559411,26.77717306036493,3.100114174081601,54.97359753108432
184.0262475,0.31315575543996044,26.77083920741842,3.3258963548340033,58.97751291487006
184.05461,0.31310519323365393,26.764546502441334,3.202644240534898,56.79207113468243
184.0827735,0.3130549827094533,26.758298482660358,3.440927770136989,61.01769831422217
184.1109945,0.3130046665830777,26.752038238301854,3.17611424525505,56.32194444532257
184.139475,0.312953884636322,26.745720967103402,3.3011712023847206,58.53974723790937
184.16798599999998,0.3129030451239384,26.739397470126093,3.1569615451451325,55.9826379625792
184.1963485,0.3128524672365349,26.733107442961405,3.3780235065437334,59.902921029380266
184.22438649999998,0.31280246489457614,26.726889902611802,3.3285349963815607,59.02550503918147
184.2525235,0.31275228286197265,26.72065092825877,3.331766524154076,59.08298113747306
184.281069,0.3127013690498661,26.714321905143663,3.132634348364303,55.551887491406575
184.30967950000002,0.31265033603117226,26.707979004538828,3.3245769430839736,58.95583296354418
184.3379885,0.3125998375646842,26.70170347055389,3.3150430660970946,58.786936593712944
184.36608,0.3125497238838601,26.69547666602646,3.464378302494838,61.435333304899956
184.394236,0.3124994919290753,26.68923607652715,3.300697185746331,58.53287399826435
184.422457,0.312449140772749,26.682981593084754,3.445283078818186,61.09706345651156
184.4512125,0.31239783262773924,26.676609177391832,3.0438513706968493,53.9784179958206
184.4797885,0.31234684140093455,26.670277064737476,3.549997057667229,62.954384012688784
184.5078875,0.31229669805509286,26.66405115803363,3.282556379506294,58.211854422348445
184.5364825,0.3122456662310612,26.657715868066642,3.2815670239743664,58.194480607941
184.564734,0.3121952440950124,26.651457190463546,3.4615328607379734,61.386127636627954
184.59299299999998,0.31214480524221117,26.645197355904877,3.2759978429710355,58.09605578247046
184.62133999999998,0.3120942059595752,26.638918533173133,3.4196716872424733,60.64412305368532
184.649859,0.31204329624735894,26.632602121627055,3.1947016452999173,56.65469253228811
184.6786335,0.31199192695738637,26.6262296373474,3.282195270841496,58.20647275653415
184.706923,0.3119414200850861,26.61996506574934,3.436415163623144,60.94158670678346
184.73502200000001,0.3118912499511995,26.61374317163521,3.3631582675133584,59.64261705186543
184.763205,0.31184092644798234,26.607503168662856,3.368488089872129,59.73730991483134
184.791483,0.31179042988810773,26.601242624328282,3.2962467512175553,58.45634046622445
184.81976500000002,0.3117399227405417,26.594981686277272,3.355298978585763,59.503758378210364
184.84798999999998,0.3116895139378217,26.588733855347424,3.320314003402544,58.88349660892301
184.876566,0.3116384747392991,26.582408823407476,3.173826879182189,56.28581322960911
184.90520700000002,0.31158731587458144,26.576069903017952,3.2857720392551464,58.27126163336978
184.933497,0.3115367804470006,26.569809155521362,3.3526168108024765,59.4568880115937
184.96174100000002,0.31148632368473866,26.56355907064234,3.3050697293341975,58.61383603858701
184.99032449999999,0.31143525683909334,26.557234347334862,3.1708334973798453,56.233385913134995
185.018534,0.3113848546312517,26.550992860482193,3.4994107709038613,62.06074458617089
185.04665949999998,0.3113345989879047,26.544770432864265,3.2035373262491156,56.81370392470742
185.075617,0.31128285301200986,26.538364427870633,3.059719709209182,54.26330653139691
185.104071,0.31123200311592153,26.5320702927011,3.4734493720538557,61.600871358421664
185.13203650000003,0.3111820226694671,26.525884682489057,3.308276401333246,58.67173349597414
185.160269,0.311131561458226,26.51964048311602,3.323429942370931,58.94065039421446
185.18834149999998,0.31108138264489,26.51343213545531,3.3886330832059457,60.097194393207744
185.21688699999999,0.3110303546858697,26.507119655098435,3.079583861221185,54.616386468691346
185.24544,0.31097930960263004,26.500805991826187,3.3831360802649533,60.000058247243395
185.2735775,0.3109290036712185,26.49458466794008,3.2867046069537253,58.29001102661661
185.30203899999998,0.3108781147728725,26.48829217282042,3.2100572944457264,56.93083074815139
185.3303665,0.31082746175676873,26.482029767755748,3.361446416770183,59.61591272421798
185.358839,0.31077654572115987,26.475735772359272,3.144332582844783,55.765519803837755
185.387415,0.3107254408156931,26.46941936482233,3.3140211247393587,58.77516132112565
185.41540750000001,0.3106753757427108,26.463232385526325,3.4547363081062645,61.27096414965452
185.4436365,0.3106248839732227,26.456993585773766,3.191098239872311,56.59541487171231
185.47216650000001,0.31057385001925625,26.45068872191141,3.2867823582391766,58.29258271305091
185.500517,0.3105231333527798,26.444423981214054,3.274940174535846,58.08272590419799
185.5290435,0.31047209800111786,26.438120805434583,3.194601246147974,56.65804083207612
185.55757749999998,0.310421045368496,26.431816428814592,3.278025402403942,58.137785928386116
185.58596999999997,0.310370242057148,26.425543766914387,3.275744145278251,58.09749648422026
185.6141835,0.3103197552181671,26.419311095212525,3.378896535751621,59.92714689879469
185.6422065,0.31026960549185395,26.4131209438653,3.3755236756685436,59.86749978462891
185.670527,0.3102189195224683,26.40686551679489,3.211075862749726,56.95105807503605
185.69913350000002,0.310167717758938,26.400547366129498,3.208302723964037,56.902042041250034
185.7276215,0.3101167241532574,26.3942558336751,3.2596983520841714,57.813758099781076
185.75588850000003,0.310066122237431,26.38801354680176,3.319520346089232,58.87492799900903
185.7840945,0.31001562563379637,26.381785164046775,3.2921270725143237,58.38925146445278
185.812567,0.3099646479699254,26.37549837071852,3.1833282684019104,56.45975885858938
185.84117700000002,0.30991342011157724,26.36918165796681,3.2237901757794156,57.17756315692041
185.86936,0.30986295287579785,26.362959651675137,3.411698990022918,60.51051433482434
185.897459,0.309812632146935,26.35675661389423,3.274562575438767,58.07840629271078
185.92562700000002,0.309762183916854,26.350538766920582,3.3849737733962764,60.03685956408543
185.95417650000002,0.30971104839697844,26.344237137573568,3.087577251146215,54.762311414066616
185.98262649999998,0.3096600870415784,26.337957899990037,3.4400936223643135,61.01483979403236
186.010943,0.30960936078964746,26.331708551440006,3.154451965258894,55.94875165854631
186.0396525,0.30955792639830554,26.325372899456944,3.234277356030747,57.3647399842423
186.06796150000002,0.30950720544737154,26.319126052889185,3.367186814165033,59.722262262619694
186.0962585,0.309456501940647,26.312882271966927,3.2400074959639733,57.46670835496195
186.1245175,0.3094058624631713,26.306647290899562,3.375678092469276,59.87321776603401
186.153048,0.3093547323340049,26.30035282604098,3.0877896172004555,54.767202224058
186.1813495,0.3093040084873696,26.29410929815306,3.4912714814630905,61.92382049566895
186.20894099999998,0.3092545531936298,26.28802279753667,3.4505808684310773,61.20227550587241
186.2372,0.3092038974034388,26.28178945438418,3.128429950458958,55.48850984062102
186.2657685,0.3091526826254163,26.275488255439594,3.277168168310681,58.126829610023066
186.294127,0.30910184013228564,26.269233784511734,3.2315254977539953,57.31743765164734
186.322577,0.3090508293928536,26.262959541521255,3.2291185170573744,57.27491344255025
186.35082849999998,0.3090001703862284,26.256729477919134,3.345563127536801,59.34046605758307
186.3790685,0.3089495278276519,26.250502350077,3.249028150112613,57.62838714693624
186.40765199999998,0.3088982650110679,26.244199883312614,3.17680659761149,56.347551540073944
186.43616300000002,0.30884712793350405,26.237913806904544,3.2950260259758286,58.44460154387162
186.4642815,0.30879669063508575,26.23171466266439,3.3877854131878453,60.090069798076314
186.49244549999997,0.30874616752185297,26.22550587805304,3.2705024753582443,58.00995932071772
186.5206015,0.30869565454533837,26.21929924639222,3.3849299768473253,60.039771604025894
186.54889150000002,0.3086448969103021,26.21306346660279,3.190366915925687,56.58889913975171
186.5772195,0.30859406680672125,26.20681970128734,3.3529571344064757,59.47300535969913
186.605444,0.30854341813544045,26.20059913545501,3.2382413288444973,57.438403803560796
186.6339705,0.30849222317063574,26.19431240100535,3.1969290794070515,56.70579376054774
186.66222249999998,0.30844151650592666,26.188086547257626,3.3896408211022235,60.124209830098145
186.690512,0.30839073820502394,26.18185281274809,3.1852714806995652,56.499346444188475
186.7190075,0.3083395857488677,26.175574070978975,3.2853961724120215,58.27549854075017
186.747477,0.30828847554686956,26.169301443206834,3.2013593382731123,56.78504233215928
186.77599600000002,0.3082372720376321,26.16301829350316,3.263310524635335,57.88409025345192
186.804068,0.3081868667250125,26.156833998434113,3.442363151497768,61.060274961288556
186.832312,0.3081361482002827,26.1506121844757,3.178875616507338,56.3867255641652
186.8607735,0.3080850346535882,26.144342834651862,3.3331976802228644,59.12425615727116
186.8892235,0.3080339372803741,26.138076394350062,3.1935308637899236,56.647013085716694
186.9177995,0.30798260908418945,26.131782578244888,3.274034565434293,58.075163558750205
186.946089,0.3079317910218141,26.125552233984667,3.3499545198831076,59.42201350800229
186.97425299999998,0.3078811939638552,26.119349894035206,3.345969813531704,59.35150515481876
187.002894,0.3078297354127093,26.11304287971466,3.107512956255151,55.12187145494108
187.031546,0.3077782524880776,26.10673381643035,3.34308712384496,59.30072305307485
187.059683,0.30772769043281606,26.100538516020237,3.3776391991229833,59.913793054270954
187.08786600000002,0.3076770412315805,26.094333444988525,3.321055209766136,58.91025753895109
187.116232,0.3076260586060773,26.088088442726384,3.2794411337391733,58.17226060296493
187.144827,0.3075746597668051,26.081793388212397,3.197638824002136,56.72138091231715
187.173224,0.3075236122151062,26.075542282457064,3.3813158101775946,59.979715214934934
187.201216,0.3074732881951018,26.069380679941347,3.4092591012403823,60.475564613590464
187.22948300000002,0.30742246522095545,26.0631588949683,3.233365507298772,57.35562223449341
187.2577845,0.30737157561403766,26.056929867631446,3.387693667226065,60.09337557536954
187.2863985,0.3073201193972443,26.05063241630066,3.0747185694948005,54.54175719474766
187.3150585,0.30726857571209015,26.04432519812321,3.3614907481686376,59.62892290973643
187.3435005,0.3072174193793205,26.038066306858024,3.179024363279347,56.39234835816826
187.3718665,0.307166395054323,26.031824487215104,3.3925966610579614,60.181059717736396
187.399966,0.3071158454769153,26.025641650085575,3.3057882196485107,58.64134096084547
187.42858,0.3070643655925283,26.01934595206173,3.1164044826291657,55.2820288571341
187.4564575,0.30701420613620695,26.013212634602667,3.7096811639461906,65.80637873789746
187.4842325,0.3069642265584096,26.007102195086173,3.1657514441174084,56.157720587574346
187.512915,0.3069126092067762,26.000792448483026,3.2141025127950873,57.01559667529874
187.541334,0.3068614612513488,25.994541008231092,3.310160178387938,58.719755498238534
187.56998249999998,0.30680989539530007,25.988239424923577,3.1066505283200523,55.10981083953762
187.5984445,0.30675866039308286,25.981979201933598,3.4150356409814333,60.580526160753934
187.6267995,0.3067076131962973,25.975742846414676,3.1633555866326004,56.116049582425404
187.65555799999998,0.3066558346678377,25.969418083385495,3.2125833122331278,56.989490170337646
187.68405,0.3066045310670711,25.96315226455156,3.3193178669506227,58.88307744024957
187.7120885,0.3065540392831252,25.956986499892768,3.474177419310034,61.63038949020501
187.74009949999999,0.3065035922837118,25.950827100696532,3.352475990886582,59.471632132658975
187.768389,0.3064526388946133,25.944606782698145,3.3363189204586092,59.18518563241197
187.79692699999998,0.3064012330012585,25.938332149745957,3.230354268822395,57.30557771042312
187.82540749999998,0.3063499257426134,25.932070483545083,3.3748309369214957,59.86873016442575
187.853674,0.3062989991084382,25.925856185671247,3.3530063177510807,59.48174088392022
187.88219249999997,0.30624761350151863,25.9195868065936,3.256537161933621,57.770566056030255
187.91039849999999,0.3061967860595847,25.913386440873417,3.537142635920489,62.74865612558065
187.938513,0.3061461186307712,25.907206499036736,3.315491927817996,58.81676014478542
187.96686749999998,0.30609501373993653,25.900974113863988,3.413185878484792,60.55002709864999
187.995516,0.30604337390602027,25.894677423281315,3.170549807662767,56.24582270592624
188.0239775,0.30599206610490126,25.888422147068784,3.5264483695558355,62.55967828145199
188.0521645,0.3059412481822981,25.8822275068438,3.327153280219085,59.02432879697676
188.0809045,0.30588942816309417,25.875911646378576,3.2442501352078446,57.55378309855625
188.10923200000002,0.3058383468533323,25.869686743246554,3.5528248502955506,63.02815871482224
188.1371825,0.3057879404346456,25.86354498212396,3.440497471423779,61.035615150800226
188.1658425,0.3057362493919203,25.857247622430954,3.173775736477729,56.304046950679584
188.1943495,0.30568482916362577,25.850984185529445,3.5193352323262443,62.43459509179011
188.222456,0.3056341263195939,25.844809040688435,3.3793654822149106,59.95164364337456
188.250967,0.30558268866194876,25.838545323692127,3.2981396250613257,58.510829423740596
188.279364,0.3055314515422882,25.832306949262854,3.425430044989661,60.7692115322062
